# q/kF, int w**0 * S(q; w) dw
5.000000000000000278e-02,1.871021520470011546e-04
5.791583166332665150e-02,3.905915514034016996e-04
6.583166332665331411e-02,7.713325372725296416e-04
7.374749498997995589e-02,1.417029228087243959e-03
8.166332665330661156e-02,2.289831385247731704e-03
8.957915831663328110e-02,3.059715923390078120e-03
9.749498997995992289e-02,3.412184240910300353e-03
1.054108216432865786e-01,3.447403256905365830e-03
1.133266533066132342e-01,3.414815589475405418e-03
1.212424849699398899e-01,3.459395128180955525e-03
1.291583166332665455e-01,3.636565086919185848e-03
1.370741482965932012e-01,3.964583556142999531e-03
1.449899799599198569e-01,4.443309882740425348e-03
1.529058116232465125e-01,5.051895315280501182e-03
1.608216432865731682e-01,5.744597541850049796e-03
1.687374749498998239e-01,6.461577982576812915e-03
1.766533066132264795e-01,7.156580721754179052e-03
1.845691382765531630e-01,7.819450042105637044e-03
1.924849699398797909e-01,8.472343429344164623e-03
2.004008016032064465e-01,9.146884499551822742e-03
2.083166332665331022e-01,9.864022708210747059e-03
2.162324649298597301e-01,1.062781678995599124e-02
2.241482965931864413e-01,1.143092679743502003e-02
2.320641282565130692e-01,1.226410764889444491e-02
2.399799599198396971e-01,1.312261517741934030e-02
2.478957915831663250e-01,1.400682687772253701e-02
2.558116232464929807e-01,1.491924420547221034e-02
2.637274549098196363e-01,1.586165292549249553e-02
2.716432865731462920e-01,1.683434914607432817e-02
2.795591182364729477e-01,1.783687982887612392e-02
2.874749498997996033e-01,1.886889930608373275e-02
2.953907815631262590e-01,1.993041822842381294e-02
3.033066132264529147e-01,2.102161687139825902e-02
3.112224448897795703e-01,2.214264250738793086e-02
3.191382765531062260e-01,2.329357199533085149e-02
3.270541082164328817e-01,2.447446048970086316e-02
3.349699398797595373e-01,2.568537863746259836e-02
3.428857715430861930e-01,2.692641065892100935e-02
3.508016032064128487e-01,2.819764324854317702e-02
3.587174348697395043e-01,2.949916345707330467e-02
3.666332665330661600e-01,3.083105737066657928e-02
3.745490981963928157e-01,3.219341482988515718e-02
3.824649298597195268e-01,3.358632893138303183e-02
3.903807615230461270e-01,3.500989324101023287e-02
3.982965931863727826e-01,3.646420372141675331e-02
4.062124248496994383e-01,3.794936064038404583e-02
4.141282565130260940e-01,3.946546394075951120e-02
4.220440881763526941e-01,4.101261621639869931e-02
4.299599198396792943e-01,4.259092268537493370e-02
4.378757515030060055e-01,4.420049094966591041e-02
4.457915831663327166e-01,4.584143001458047817e-02
4.537074148296593168e-01,4.751385245447829753e-02
4.616232464929859725e-01,4.921787409655866558e-02
4.695390781563125726e-01,5.095360785560124756e-02
4.774549098196392838e-01,5.272117122575196296e-02
4.853707414829659950e-01,5.452069277193640623e-02
4.932865731462925951e-01,5.635228519342351527e-02
5.012024048096193063e-01,5.821608403609490612e-02
5.091182364729459620e-01,6.011220611708517625e-02
5.170340681362726176e-01,6.204079366761983821e-02
5.249498997995992733e-01,6.400196982078752705e-02
5.328657314629259290e-01,6.599586860046632864e-02
5.407815631262525846e-01,6.802263503185200511e-02
5.486973947895792403e-01,7.008240535324655740e-02
5.566132264529058959e-01,7.217531794051897098e-02
5.645290581162325516e-01,7.430151817486886634e-02
5.724448897795592073e-01,7.646115291862080887e-02
5.803607214428858629e-01,7.865437151162044116e-02
5.882765531062125186e-01,8.088132501675689146e-02
5.961923847695391743e-01,8.314216805294386003e-02
6.041082164328658299e-01,8.543705521114632051e-02
6.120240480961924856e-01,8.776614400688367845e-02
6.199398797595191413e-01,9.012959412966439765e-02
6.278557114228457969e-01,9.252756671166335878e-02
6.357715430861724526e-01,9.496024911028218274e-02
6.436873747494991083e-01,9.742778893715603461e-02
6.516032064128257639e-01,9.993035055272997402e-02
6.595190380761524196e-01,1.024681179606601045e-01
6.674348697394790753e-01,1.050412819219026794e-01
6.753507014028057309e-01,1.076499819660382690e-01
6.832665330661323866e-01,1.102944411088496446e-01
6.911823647294590423e-01,1.129748104230798855e-01
6.990981963927856979e-01,1.156912912024781331e-01
7.070140280561123536e-01,1.184440663823046469e-01
7.149298597194390092e-01,1.212333299814899595e-01
7.228456913827657759e-01,1.240592581706502634e-01
7.307615230460922096e-01,1.269220881254311262e-01
7.386773547094189762e-01,1.298219446601314442e-01
7.465931863727456319e-01,1.327591209388709337e-01
7.545090180360722876e-01,1.357337560086286088e-01
7.624248496993990543e-01,1.387460333542915869e-01
7.703406813627254879e-01,1.417962400373011522e-01
7.782565130260522546e-01,1.448845478735009962e-01
7.861723446893789102e-01,1.480111385146572756e-01
7.940881763527055659e-01,1.511762277667506593e-01
8.020040080160323326e-01,1.543800697557341506e-01
8.099198396793588772e-01,1.576229104523119706e-01
8.178356713426853108e-01,1.609049173324027526e-01
8.257515030060120775e-01,1.642263157363983150e-01
8.336673346693387332e-01,1.675873336354922472e-01
8.415831663326653889e-01,1.709882012993788891e-01
8.494989979959921556e-01,1.744291514038843471e-01
8.574148296593185892e-01,1.779104211040990480e-01
8.653306613226453559e-01,1.814322417567008627e-01
8.732464929859720115e-01,1.849948505728035986e-01
8.811623246492986672e-01,1.885984903179308558e-01
8.890781563126254339e-01,1.922433934292183122e-01
8.969939879759518675e-01,1.959298007189479718e-01
9.049098196392786342e-01,1.996579501102664078e-01
9.128256513026052898e-01,2.034280763621259258e-01
9.207414829659319455e-01,2.072404134924541730e-01
9.286573146292587122e-01,2.110951984066454790e-01
9.365731462925851458e-01,2.149927297682645566e-01
9.444889779559119125e-01,2.189334262300669243e-01
9.524048096192385682e-01,2.229172997234873388e-01
9.603206412825652238e-01,2.269445729600047257e-01
9.682364729458919905e-01,2.310154617834823121e-01
9.761523046092184241e-01,2.351304918766920493e-01
9.840681362725451908e-01,2.392899338281881116e-01
9.919839679358718465e-01,2.434936687041633907e-01
9.998997995991985022e-01,2.477419072733843541e-01
1.007815631262525047e+00,2.520357547584592961e-01
1.015731462925851813e+00,2.563745921308157039e-01
1.023647294589178358e+00,2.607585270484431561e-01
1.031563126252505125e+00,2.651890548266053749e-01
1.039478957915831669e+00,2.696651080644170140e-01
1.047394789579158436e+00,2.741873123965050674e-01
1.055310621242485203e+00,2.787566398900211406e-01
1.063226452905811747e+00,2.833717764481291645e-01
1.071142284569138292e+00,2.880351793345882205e-01
1.079058116232465059e+00,2.927447730508934698e-01
1.086973947895791603e+00,2.975027782688055011e-01
1.094889779559118370e+00,3.023077512382418841e-01
1.102805611222444915e+00,3.071614768204658508e-01
1.110721442885771681e+00,3.120625890431752980e-01
1.118637274549098226e+00,3.170132320368280188e-01
1.126553106212424993e+00,3.220110512980490225e-01
1.134468937875751537e+00,3.270598118576545921e-01
1.142384769539078304e+00,3.321548583250327202e-01
1.150300601202404849e+00,3.373027025284737745e-01
1.158216432865731615e+00,3.424980306677722908e-01
1.166132264529058160e+00,3.477430282008258100e-01
1.174048096192384927e+00,3.530398245343843167e-01
1.181963927855711471e+00,3.583830154069521656e-01
1.189879759519038238e+00,3.637804277995759228e-01
1.197795591182364783e+00,3.692281065803417750e-01
1.205711422845691549e+00,3.747213761955693889e-01
1.213627254509018094e+00,3.802713528160086565e-01
1.221543086172344861e+00,3.858724637220645182e-01
1.229458917835671405e+00,3.915206153207114737e-01
1.237374749498998172e+00,3.972184587217816865e-01
1.245290581162324717e+00,4.029748367901634376e-01
1.253206412825651483e+00,4.087813332401910027e-01
1.261122244488978028e+00,4.146336879588334856e-01
1.269038076152304795e+00,4.205333760602640858e-01
1.276953907815631339e+00,4.264960395882393951e-01
1.284869739478958106e+00,4.325119024964840797e-01
1.292785571142284651e+00,4.385785383560509287e-01
1.300701402805611417e+00,4.446909184401217630e-01
1.308617234468937962e+00,4.508371269798260306e-01
1.316533066132264729e+00,4.570501075970920812e-01
1.324448897795591273e+00,4.633191990686701400e-01
1.332364729458918040e+00,4.696421530093325969e-01
1.340280561122244585e+00,4.760181343754638084e-01
1.348196392785571351e+00,4.824468939029556980e-01
1.356112224448897896e+00,4.889287658898420763e-01
1.364028056112224663e+00,4.954666073521046821e-01
1.371943887775551207e+00,5.020375179198103277e-01
1.379859719438877974e+00,5.086556295614422796e-01
1.387775551102204519e+00,5.153252545809553498e-01
1.395691382765531285e+00,5.220456782373297244e-01
1.403607214428857830e+00,5.288162235507974929e-01
1.411523046092184597e+00,5.356362504250087309e-01
1.419438877755511141e+00,5.425051232796389566e-01
1.427354709418837908e+00,5.494221528342883021e-01
1.435270541082164675e+00,5.563867169829936898e-01
1.443186372745491219e+00,5.633980341470755659e-01
1.451102204408817764e+00,5.704553918606248830e-01
1.459018036072144753e+00,5.775579208594814329e-01
1.466933867735471075e+00,5.847046879900920091e-01
1.474849699398797842e+00,5.918946842556865873e-01
1.482765531062124387e+00,5.991266208275051186e-01
1.490681362725451153e+00,6.063979891489725826e-01
1.498597194388777698e+00,6.137162773437385699e-01
1.506513026052104465e+00,6.210767332798735607e-01
1.514428857715430787e+00,6.284766102335619387e-01
1.522344689378757776e+00,6.359141072195352296e-01
1.530260521042084321e+00,6.433875316148401913e-01
1.538176352705411309e+00,6.508951318878800629e-01
1.546092184368737632e+00,6.584351043832790129e-01
1.554008016032064399e+00,6.660047627875087528e-01
1.561923847695390943e+00,6.736098226638811415e-01
1.569839679358717266e+00,6.812467311295242745e-01
1.577755511022044255e+00,6.889103774630382926e-01
1.585671342685370799e+00,6.965981831285831261e-01
1.593587174348697344e+00,7.043074042825476777e-01
1.601503006012024111e+00,7.120390697197568342e-01
1.609418837675350877e+00,7.197953411593565054e-01
1.617334669338677422e+00,7.275679334796686382e-01
1.625250501002004189e+00,7.353534528936827019e-01
1.633166332665330955e+00,7.431496716457729468e-01
1.641082164328657500e+00,7.509626841521013230e-01
1.648997995991983823e+00,7.587820845992540031e-01
1.656913827655310811e+00,7.666037317889994318e-01
1.664829659318637356e+00,7.744280482421301848e-01
1.672745490981963901e+00,7.822556234341953019e-01
1.680661322645290667e+00,7.900769150993539602e-01
1.688577154308617434e+00,7.978885832445794524e-01
1.696492985971943979e+00,8.056961131616731109e-01
1.704408817635270745e+00,8.134875128978885650e-01
1.712324649298597512e+00,8.212586669927934846e-01
1.720240480961924057e+00,8.290150306906957089e-01
1.728156312625250379e+00,8.367439550667884474e-01
1.736072144288577368e+00,8.444429153145127653e-01
1.743987975951903913e+00,8.521137248341841275e-01
1.751903807615230457e+00,8.597441968360994835e-01
1.759819639278557224e+00,8.673361952443902068e-01
1.767735470941883991e+00,8.748834064415521583e-01
1.775651302605210535e+00,8.823780389910826916e-01
1.783567134268537302e+00,8.898233220777874708e-01
1.791482965931864069e+00,8.972053501996879454e-01
1.799398797595190613e+00,9.045277686163459840e-01
1.807314629258516936e+00,9.117795977550960940e-01
1.815230460921843925e+00,9.189586357748762424e-01
1.823146292585170469e+00,9.260598711475394040e-01
1.831062124248497014e+00,9.330762467620573597e-01
1.838977955911823781e+00,9.400060643227378110e-01
1.846893787575150547e+00,9.468396076156953001e-01
1.854809619238477092e+00,9.535767757890389884e-01
1.862725450901803859e+00,9.602067999404084730e-01
1.870641282565130625e+00,9.667297433415089625e-01
1.878557114228457170e+00,9.731352585288952639e-01
1.886472945891783493e+00,9.794222406911394785e-01
1.894388777555110703e+00,9.855821588328086413e-01
1.902304609218437026e+00,9.916114733808782944e-01
1.910220440881763571e+00,9.975049148885504202e-01
1.918136272545090337e+00,1.003255024763638703e+00
1.926052104208417104e+00,1.008861564756571516e+00
1.933967935871743649e+00,1.014312775548287249e+00
1.941883767535070415e+00,1.019611329921836784e+00
1.949799599198397182e+00,1.024746040691704163e+00
1.957715430861723727e+00,1.029715230772086043e+00
1.965631262525050049e+00,1.034515390586243200e+00
1.973547094188377260e+00,1.039138178140523561e+00
1.981462925851703583e+00,1.043585788266824244e+00
1.989378757515030127e+00,1.047849517714838585e+00
1.997294589178356894e+00,1.051925723053944717e+00
2.005210420841683661e+00,1.055832534080840102e+00
2.013126252505009983e+00,1.059613215193650593e+00
2.021042084168336750e+00,1.063274180715687578e+00
2.028957915831663517e+00,1.066820566035315387e+00
2.036873747494990283e+00,1.070248001068726751e+00
2.044789579158316606e+00,1.073558303776615430e+00
2.052705410821643373e+00,1.076758112516806642e+00
2.060621242484970139e+00,1.079843097483664360e+00
2.068537074148296462e+00,1.082815085686333667e+00
2.076452905811623229e+00,1.085678786765054138e+00
2.084368737474949995e+00,1.088434565508767715e+00
2.092284569138276318e+00,1.091082175254133757e+00
2.100200400801603084e+00,1.093623652158698611e+00
2.108116232464929851e+00,1.096064345314692323e+00
2.116032064128256618e+00,1.098403138565551274e+00
2.123947895791582940e+00,1.100641204440723442e+00
2.131863727454909707e+00,1.102780655766726570e+00
2.139779559118236474e+00,1.104825484767831378e+00
2.147695390781563241e+00,1.106777307146231903e+00
2.155611222444889563e+00,1.108636327972458702e+00
2.163527054108216330e+00,1.110404639687711859e+00
2.171442885771543096e+00,1.112084435938144766e+00
2.179358717434869863e+00,1.113679092569419327e+00
2.187274549098196186e+00,1.115190966454936872e+00
2.195190380761522952e+00,1.116620270930923864e+00
2.203106212424849719e+00,1.117969140176204412e+00
2.211022044088176486e+00,1.119239696102346526e+00
2.218937875751502808e+00,1.120433972320475258e+00
2.226853707414829575e+00,1.121554143443904916e+00
2.234769539078156342e+00,1.122603999418646081e+00
2.242685370741483109e+00,1.123583848709950317e+00
2.250601202404809431e+00,1.124495300312045254e+00
2.258517034068136198e+00,1.125340442021834253e+00
2.266432865731462964e+00,1.126121236965476502e+00
2.274348697394789731e+00,1.126839550329916673e+00
2.282264529058116054e+00,1.127497284087262353e+00
2.290180360721442820e+00,1.128096468591708756e+00
2.298096192384769587e+00,1.128638698520347594e+00
2.306012024048096354e+00,1.129125983790451260e+00
2.313927855711422676e+00,1.129559917186341522e+00
2.321843687374749443e+00,1.129942359651764150e+00
2.329759519038076210e+00,1.130275264765068011e+00
2.337675350701402976e+00,1.130560258188346268e+00
2.345591182364729299e+00,1.130798643452238128e+00
2.353507014028056066e+00,1.130992063962966698e+00
2.361422845691382832e+00,1.131141957582667112e+00
2.369338677354709599e+00,1.131249844684015793e+00
2.377254509018035922e+00,1.131317481347902332e+00
2.385170340681362688e+00,1.131346001593539485e+00
2.393086172344689455e+00,1.131337012169206790e+00
2.401002004008016222e+00,1.131292089582143223e+00
2.408917835671342544e+00,1.131212832637321419e+00
2.416833667334669311e+00,1.131100206178734080e+00
2.424749498997996078e+00,1.130955512604072233e+00
2.432665330661322844e+00,1.130780003622232854e+00
2.440581162324649167e+00,1.130574877280392743e+00
2.448496993987975934e+00,1.130341278035939867e+00
2.456412825651302700e+00,1.130080297820533097e+00
2.464328657314629467e+00,1.129793050668223664e+00
2.472244488977955790e+00,1.129480880903423134e+00
2.480160320641282556e+00,1.129144387604474220e+00
2.488076152304609323e+00,1.128784805567450755e+00
2.495991983967936090e+00,1.128403055166660618e+00
2.503907815631262412e+00,1.128001559662270115e+00
2.511823647294589179e+00,1.127580593960597621e+00
2.519739478957915946e+00,1.127140516340180865e+00
2.527655310621242712e+00,1.126681789978970505e+00
2.535571142284569035e+00,1.126205376843713024e+00
2.543486973947895802e+00,1.125712284762926840e+00
2.551402805611222568e+00,1.125202918159529997e+00
2.559318637274549335e+00,1.124681274309625945e+00
2.567234468937875658e+00,1.124145143121188406e+00
2.575150300601202424e+00,1.123595121581676182e+00
2.583066132264529191e+00,1.123031836252404769e+00
2.590981963927855514e+00,1.122455863179341984e+00
2.598897795591182280e+00,1.121870863961941911e+00
2.606813627254509047e+00,1.121275412639693325e+00
2.614729458917835814e+00,1.120669118779763940e+00
2.622645290581162136e+00,1.120052423737817771e+00
2.630561122244488903e+00,1.119427421784971122e+00
2.638476953907815670e+00,1.118796425921969151e+00
2.646392785571142436e+00,1.118156554301493744e+00
2.654308617234468759e+00,1.117508112706163015e+00
2.662224448897795526e+00,1.116854182724335898e+00
2.670140280561122292e+00,1.116195650881359969e+00
2.678056112224449059e+00,1.115529718325930064e+00
2.685971943887775382e+00,1.114857450734878519e+00
2.693887775551102148e+00,1.114183647269123334e+00
2.701803607214428915e+00,1.113504595610635750e+00
2.709719438877755682e+00,1.112819516692254096e+00
2.717635270541082004e+00,1.112133360153368056e+00
2.725551102204408771e+00,1.111443779720683089e+00
2.733466933867735538e+00,1.110749903126785787e+00
2.741382765531062304e+00,1.110055144643455893e+00
2.749298597194388627e+00,1.109358560563826757e+00
2.757214428857715394e+00,1.108658094813110395e+00
2.765130260521042160e+00,1.107958837752160530e+00
2.773046092184368927e+00,1.107257383981032239e+00
2.780961923847695250e+00,1.106553221929945208e+00
2.788877755511022016e+00,1.105852598569328826e+00
2.796793587174348783e+00,1.105148663964078626e+00
2.804709418837675550e+00,1.104445256859019509e+00
2.812625250501001872e+00,1.103743021662339396e+00
2.820541082164328639e+00,1.103038274988626943e+00
2.828456913827655406e+00,1.102338947418412651e+00
2.836372745490982172e+00,1.101636925504174913e+00
2.844288577154308495e+00,1.100937845118268976e+00
2.852204408817635262e+00,1.100239377055691081e+00
2.860120240480962028e+00,1.099541641789808288e+00
2.868036072144288795e+00,1.098847334286465305e+00
2.875951903807615562e+00,1.098152054452337101e+00
2.883867735470942328e+00,1.097462401453382919e+00
2.891783567134268651e+00,1.096770572912340702e+00
2.899699398797595418e+00,1.096085956003142403e+00
2.907615230460921740e+00,1.095398828022199123e+00
2.915531062124248063e+00,1.094719160500201349e+00
2.923446893787575718e+00,1.094037468941664093e+00
2.931362725450902040e+00,1.093363618977405638e+00
2.939278557114228363e+00,1.092687553763593167e+00
2.947194388777555130e+00,1.092019849646451712e+00
2.955110220440881452e+00,1.091350293197741461e+00
2.963026052104208219e+00,1.090688232174643391e+00
2.970941883767534986e+00,1.090026443281266300e+00
2.978857715430861752e+00,1.089370651920662070e+00
2.986773547094188519e+00,1.088716467883804828e+00
2.994689378757515286e+00,1.088066183743812809e+00
3.002605210420841608e+00,1.087420931703513061e+00
3.010521042084168375e+00,1.086776484101260820e+00
3.018436873747495142e+00,1.086139655591432662e+00
3.026352705410821908e+00,1.085503531406228017e+00
3.034268537074148675e+00,1.084873894406743089e+00
3.042184368737475442e+00,1.084247027635275806e+00
3.050100200400801764e+00,1.083622888624139247e+00
3.058016032064128531e+00,1.083005965654697977e+00
3.065931863727454854e+00,1.082390460329274662e+00
3.073847695390781176e+00,1.081780351975268895e+00
3.081763527054108831e+00,1.081175300943889805e+00
3.089679358717434710e+00,1.080571399021226453e+00
3.097595190380761476e+00,1.079975388269071246e+00
3.105511022044088243e+00,1.079382631961276928e+00
3.113426853707414566e+00,1.078791499468845005e+00
3.121342685370741332e+00,1.078208804209541682e+00
3.129258517034068099e+00,1.077629234758959997e+00
3.137174348697394866e+00,1.077051307673150715e+00
3.145090180360721632e+00,1.076481475729608839e+00
3.153006012024048399e+00,1.075915155287843206e+00
3.160921843687374722e+00,1.075351763176629838e+00
3.168837675350701488e+00,1.074793124138831546e+00
3.176753507014028255e+00,1.074241153091227918e+00
3.184669338677354133e+00,1.073692151535986072e+00
3.192585170340680900e+00,1.073145337800336829e+00
3.200501002004008555e+00,1.072606359007971077e+00
