# q/kF, int w**1 * S(q; w) dw
5.000000000000000278e-02,3.139015787359641001e-06
5.791583166332665150e-02,6.552520856884614742e-06
6.583166332665331411e-02,1.293903910833813566e-05
7.374749498997995589e-02,2.376948863090902524e-05
8.166332665330661156e-02,3.840884186006292565e-05
8.957915831663328110e-02,5.132147508223219954e-05
9.749498997995992289e-02,5.723204751694410485e-05
1.054108216432865786e-01,5.782012900528006957e-05
1.133266533066132342e-01,5.726888209397251240e-05
1.212424849699398899e-01,5.800907869270708803e-05
1.291583166332665455e-01,6.096933836110927799e-05
1.370741482965932012e-01,6.645488401109640524e-05
1.449899799599198569e-01,7.446255400511732759e-05
1.529058116232465125e-01,8.464242469636253032e-05
1.608216432865731682e-01,9.622781231646155827e-05
1.687374749498998239e-01,1.082160171517410551e-04
1.766533066132264795e-01,1.198316512464871290e-04
1.845691382765531630e-01,1.309036029987965420e-04
1.924849699398797909e-01,1.418017269827300030e-04
2.004008016032064465e-01,1.530545049143651893e-04
2.083166332665331022e-01,1.650119765755409299e-04
2.162324649298597301e-01,1.777416279903881844e-04
2.241482965931864413e-01,1.911201620304872530e-04
2.320641282565130692e-01,2.049922218812549922e-04
2.399799599198396971e-01,2.192775486390697844e-04
2.478957915831663250e-01,2.339814497688562410e-04
2.558116232464929807e-01,2.491447702191908610e-04
2.637274549098196363e-01,2.647964307067419499e-04
2.716432865731462920e-01,2.809404646460657946e-04
2.795591182364729477e-01,2.975683429824828633e-04
2.874749498997996033e-01,3.146732658869691945e-04
2.953907815631262590e-01,3.322543514227874434e-04
3.033066132264529147e-01,3.503135129341297324e-04
3.112224448897795703e-01,3.688520929273015670e-04
3.191382765531062260e-01,3.878702181065039520e-04
3.270541082164328817e-01,4.073676341313266637e-04
3.349699398797595373e-01,4.273443014243056204e-04
3.428857715430861930e-01,4.478003751503500636e-04
3.508016032064128487e-01,4.687360211443762680e-04
3.587174348697395043e-01,4.901513617741635543e-04
3.666332665330661600e-01,5.120464976031399501e-04
3.745490981963928157e-01,5.344215414261777475e-04
3.824649298597195268e-01,5.572766163167055652e-04
3.903807615230461270e-01,5.806118399293837230e-04
3.982965931863727826e-01,6.044273307276668700e-04
4.062124248496994383e-01,6.287232160899017003e-04
4.141282565130260940e-01,6.534996154564871916e-04
4.220440881763526941e-01,6.787566507340126593e-04
4.299599198396792943e-01,7.044944462077947335e-04
4.378757515030060055e-01,7.307131271085089618e-04
4.457915831663327166e-01,7.574128168310545689e-04
4.537074148296593168e-01,7.845936444920048906e-04
4.616232464929859725e-01,8.122557435478239057e-04
4.695390781563125726e-01,8.403992270020249535e-04
4.774549098196392838e-01,8.690242165583262094e-04
4.853707414829659950e-01,8.981308736524703769e-04
4.932865731462925951e-01,9.277192789286304361e-04
5.012024048096193063e-01,9.577896066241578217e-04
5.091182364729459620e-01,9.883419324032505313e-04
5.170340681362726176e-01,1.019376442265232038e-03
5.249498997995992733e-01,1.050893218439747853e-03
5.328657314629259290e-01,1.082892383564223581e-03
5.407815631262525846e-01,1.115374104516380065e-03
5.486973947895792403e-01,1.148338490388301414e-03
5.566132264529058959e-01,1.181785650560175259e-03
5.645290581162325516e-01,1.215715714465048563e-03
5.724448897795592073e-01,1.250128808043610195e-03
5.803607214428858629e-01,1.285025056466456914e-03
5.882765531062125186e-01,1.320404581447006927e-03
5.961923847695391743e-01,1.356267506559970595e-03
6.041082164328658299e-01,1.392613945383087797e-03
6.120240480961924856e-01,1.429444010119890586e-03
6.199398797595191413e-01,1.466757808458698164e-03
6.278557114228457969e-01,1.504555440448656148e-03
6.357715430861724526e-01,1.542837157477683699e-03
6.436873747494991083e-01,1.581602943533268971e-03
6.516032064128257639e-01,1.620852866688651936e-03
6.595190380761524196e-01,1.660587105263931296e-03
6.674348697394790753e-01,1.700805866740470089e-03
6.753507014028057309e-01,1.741508999705657351e-03
6.832665330661323866e-01,1.782696897881617427e-03
6.911823647294590423e-01,1.824369443024914661e-03
6.990981963927856979e-01,1.866526836320720438e-03
7.070140280561123536e-01,1.909169151215710800e-03
7.149298597194390092e-01,1.952296500479141052e-03
7.228456913827657759e-01,1.995908857977186923e-03
7.307615230460922096e-01,2.040006622210022245e-03
7.386773547094189762e-01,2.084589336265498926e-03
7.465931863727456319e-01,2.129657784068860263e-03
7.545090180360722876e-01,2.175211571573939899e-03
7.624248496993990543e-01,2.221250601856448494e-03
7.703406813627254879e-01,2.267775574860065018e-03
7.782565130260522546e-01,2.314786273624205859e-03
7.861723446893789102e-01,2.362282517557961169e-03
7.940881763527055659e-01,2.410264377646958913e-03
8.020040080160323326e-01,2.458732229861247589e-03
8.099198396793588772e-01,2.507686372446044781e-03
8.178356713426853108e-01,2.557126405033329636e-03
8.257515030060120775e-01,2.607052395168799053e-03
8.336673346693387332e-01,2.657464412139488343e-03
8.415831663326653889e-01,2.708362523923984674e-03
8.494989979959921556e-01,2.759746796919335630e-03
8.574148296593185892e-01,2.811617302885954361e-03
8.653306613226453559e-01,2.863974079400744693e-03
8.732464929859720115e-01,2.916817171309470016e-03
8.811623246492986672e-01,2.970146627457534178e-03
8.890781563126254339e-01,3.023962438396349869e-03
8.969939879759518675e-01,3.078264603191585048e-03
9.049098196392786342e-01,3.133053083663051106e-03
9.128256513026052898e-01,3.188327798966376480e-03
9.207414829659319455e-01,3.244088631158468811e-03
9.286573146292587122e-01,3.300335441009434427e-03
9.365731462925851458e-01,3.357068784141318662e-03
9.444889779559119125e-01,3.414290385060924932e-03
9.524048096192385682e-01,3.471997763685436608e-03
9.603206412825652238e-01,3.530190578607973924e-03
9.682364729458919905e-01,3.588868385636623595e-03
9.761523046092184241e-01,3.648034082083148957e-03
9.840681362725451908e-01,3.707687889446858922e-03
9.919839679358718465e-01,3.767825619341583047e-03
9.998997995991985022e-01,3.828446651725549935e-03
1.007815631262525047e+00,3.889560659440839847e-03
1.015731462925851813e+00,3.951157628739505184e-03
1.023647294589178358e+00,4.013235665585105673e-03
1.031563126252505125e+00,4.075809316127588199e-03
1.039478957915831669e+00,4.138862927855961431e-03
1.047394789579158436e+00,4.202400828081285199e-03
1.055310621242485203e+00,4.266431729859514188e-03
1.063226452905811747e+00,4.330936354933982886e-03
1.071142284569138292e+00,4.395941866362738058e-03
1.079058116232465059e+00,4.461419420079898272e-03
1.086973947895791603e+00,4.527393595568494043e-03
1.094889779559118370e+00,4.593843038341048450e-03
1.102805611222444915e+00,4.660787369923149841e-03
1.110721442885771681e+00,4.728205802967115623e-03
1.118637274549098226e+00,4.796123171862886128e-03
1.126553106212424993e+00,4.864505342805297908e-03
1.134468937875751537e+00,4.933399306149332218e-03
1.142384769539078304e+00,5.002739267415779595e-03
1.150300601202404849e+00,5.072610924277574582e-03
1.158216432865731615e+00,5.142938437087143932e-03
1.166132264529058160e+00,5.213748841863439891e-03
1.174048096192384927e+00,5.285069349741875096e-03
1.181963927855711471e+00,5.356820558891084438e-03
1.189879759519038238e+00,5.429111311982966724e-03
1.197795591182364783e+00,5.501882784862618947e-03
1.205711422845691549e+00,5.575063641838195333e-03
1.213627254509018094e+00,5.648814434703196448e-03
1.221543086172344861e+00,5.723051697435136385e-03
1.229458917835671405e+00,5.797711547023185093e-03
1.237374749498998172e+00,5.872830831033078181e-03
1.245290581162324717e+00,5.948542924002371383e-03
1.253206412825651483e+00,6.024718828457112027e-03
1.261122244488978028e+00,6.101289809024960931e-03
1.269038076152304795e+00,6.178275630327768712e-03
1.276953907815631339e+00,6.255922959751057839e-03
1.284869739478958106e+00,6.334078262932606174e-03
1.292785571142284651e+00,6.412703014425983478e-03
1.300701402805611417e+00,6.491714137556353452e-03
1.308617234468937962e+00,6.570913747475595583e-03
1.316533066132264729e+00,6.650842016610513871e-03
1.324448897795591273e+00,6.731327556547974864e-03
1.332364729458918040e+00,6.812335809561831726e-03
1.340280561122244585e+00,6.893855581486772743e-03
1.348196392785571351e+00,6.975885369230472831e-03
1.356112224448897896e+00,7.058434480951217803e-03
1.364028056112224663e+00,7.141557067971516203e-03
1.371943887775551207e+00,7.224856189757050337e-03
1.379859719438877974e+00,7.308579674373904753e-03
1.387775551102204519e+00,7.392808331895396427e-03
1.395691382765531285e+00,7.477536100112872758e-03
1.403607214428857830e+00,7.562757517232742560e-03
1.411523046092184597e+00,7.648468299433231962e-03
1.419438877755511141e+00,7.734664967707316659e-03
1.427354709418837908e+00,7.821344399510965148e-03
1.435270541082164675e+00,7.908503995234725248e-03
1.443186372745491219e+00,7.996140799447130562e-03
1.451102204408817764e+00,8.084252053901549995e-03
1.459018036072144753e+00,8.172834332001679969e-03
1.466933867735471075e+00,8.261883568970366729e-03
1.474849699398797842e+00,8.351394445762969770e-03
1.482765531062124387e+00,8.441357814281753164e-03
1.490681362725451153e+00,8.531741150272194665e-03
1.498597194388777698e+00,8.622711577233132738e-03
1.506513026052104465e+00,8.714196559404727843e-03
1.514428857715430787e+00,8.806163203170430664e-03
1.522344689378757776e+00,8.898598201353788428e-03
1.530260521042084321e+00,8.991491730368630919e-03
1.538176352705411309e+00,9.084834545616095672e-03
1.546092184368737632e+00,9.178615811521330381e-03
1.554008016032064399e+00,9.272810182271289461e-03
1.561923847695390943e+00,9.367568199074310584e-03
1.569839679358717266e+00,9.462851703559217384e-03
1.577755511022044255e+00,9.558588202275133949e-03
1.585671342685370799e+00,9.654759926073045243e-03
1.593587174348697344e+00,9.751347356124248633e-03
1.601503006012024111e+00,9.848415160336141186e-03
1.609418837675350877e+00,9.946057066443100489e-03
1.617334669338677422e+00,1.004413902886279984e-02
1.625250501002004189e+00,1.014263624009295074e-02
1.633166332665330955e+00,1.024154922742936263e-02
1.641082164328657500e+00,1.034107330031575761e-02
1.648997995991983823e+00,1.044103130463833531e-02
1.656913827655310811e+00,1.054138977051360601e-02
1.664829659318637356e+00,1.064222260186926602e-02
1.672745490981963901e+00,1.074361202158829152e-02
1.680661322645290667e+00,1.084540708692272384e-02
1.688577154308617434e+00,1.094760168958761049e-02
1.696492985971943979e+00,1.105040305796129406e-02
1.704408817635270745e+00,1.115360919523806192e-02
1.712324649298597512e+00,1.125720293213969443e-02
1.720240480961924057e+00,1.136140436284694202e-02
1.728156312625250379e+00,1.146599853563230048e-02
1.736072144288577368e+00,1.157101686054162748e-02
1.743987975951903913e+00,1.167660337917829014e-02
1.751903807615230457e+00,1.178255757677397833e-02
1.759819639278557224e+00,1.188903159915254137e-02
1.767735470941883991e+00,1.199597573867155521e-02
1.775651302605210535e+00,1.210330519581273752e-02
1.783567134268537302e+00,1.221121867063131548e-02
1.791482965931864069e+00,1.231947907089137213e-02
1.799398797595190613e+00,1.242830282120509743e-02
1.807314629258516936e+00,1.253753134585268089e-02
1.815230460921843925e+00,1.264723648393719160e-02
1.823146292585170469e+00,1.275741799206689397e-02
1.831062124248497014e+00,1.286802375157903612e-02
1.838977955911823781e+00,1.297914683350302224e-02
1.846893787575150547e+00,1.309066589065949367e-02
1.854809619238477092e+00,1.320272043472189329e-02
1.862725450901803859e+00,1.331516238431765600e-02
1.870641282565130625e+00,1.342813847490515258e-02
1.878557114228457170e+00,1.354151148166230119e-02
1.886472945891783493e+00,1.365539833675234738e-02
1.894388777555110703e+00,1.376971019397188814e-02
1.902304609218437026e+00,1.388449509188566938e-02
1.910220440881763571e+00,1.399975384970061909e-02
1.918136272545090337e+00,1.411542066685774616e-02
1.926052104208417104e+00,1.423163556645839004e-02
1.933967935871743649e+00,1.434820458025405816e-02
1.941883767535070415e+00,1.446534590684271475e-02
1.949799599198397182e+00,1.458287341440641510e-02
1.957715430861723727e+00,1.470087190072155887e-02
1.965631262525050049e+00,1.481936849913675913e-02
1.973547094188377260e+00,1.493824081433111316e-02
1.981462925851703583e+00,1.505767290943473523e-02
1.989378757515030127e+00,1.517751608942020068e-02
1.997294589178356894e+00,1.529776281840525623e-02
2.005210420841683661e+00,1.541859191483195557e-02
2.013126252505009983e+00,1.553980114060334039e-02
2.021042084168336750e+00,1.566143952541993595e-02
2.028957915831663517e+00,1.578363752448051424e-02
2.036873747494990283e+00,1.590622701887286009e-02
2.044789579158316606e+00,1.602922750974545771e-02
2.052705410821643373e+00,1.615280811742072359e-02
2.060621242484970139e+00,1.627678959384613530e-02
2.068537074148296462e+00,1.640118357674529015e-02
2.076452905811623229e+00,1.652609243401966660e-02
2.084368737474949995e+00,1.665147652947609677e-02
2.092284569138276318e+00,1.677727542034235589e-02
2.100200400801603084e+00,1.690349895857377188e-02
2.108116232464929851e+00,1.703026500853711475e-02
2.116032064128256618e+00,1.715747807161299363e-02
2.123947895791582940e+00,1.728511556545120342e-02
2.131863727454909707e+00,1.741318431216170790e-02
2.139779559118236474e+00,1.754175362459614931e-02
2.147695390781563241e+00,1.767081460777673863e-02
2.155611222444889563e+00,1.780030616563717943e-02
2.163527054108216330e+00,1.793023360850036843e-02
2.171442885771543096e+00,1.806060162235740771e-02
2.179358717434869863e+00,1.819145836299178656e-02
2.187274549098196186e+00,1.832281607202617540e-02
2.195190380761522952e+00,1.845461272524113669e-02
2.203106212424849719e+00,1.858685250419108911e-02
2.211022044088176486e+00,1.871953850512290268e-02
2.218937875751502808e+00,1.885267345141521111e-02
2.226853707414829575e+00,1.898626093373854268e-02
2.234769539078156342e+00,1.912036569056780461e-02
2.242685370741483109e+00,1.925493103822903396e-02
2.250601202404809431e+00,1.938994621388524450e-02
2.258517034068136198e+00,1.952541375955899050e-02
2.266432865731462964e+00,1.966133556180171479e-02
2.274348697394789731e+00,1.979771311047754528e-02
2.282264529058116054e+00,1.993454787297524108e-02
2.290180360721442820e+00,2.007184158456477505e-02
2.298096192384769587e+00,2.020959485900063538e-02
2.306012024048096354e+00,2.034780932944129858e-02
2.313927855711422676e+00,2.048648554268628005e-02
2.321843687374749443e+00,2.062562480401784748e-02
2.329759519038076210e+00,2.076523570689218362e-02
2.337675350701402976e+00,2.090532095723665953e-02
2.345591182364729299e+00,2.104586576023470892e-02
2.353507014028056066e+00,2.118687099954846137e-02
2.361422845691382832e+00,2.132833673420831203e-02
2.369338677354709599e+00,2.147026320978392619e-02
2.377254509018035922e+00,2.161265145230771220e-02
2.385170340681362688e+00,2.175550037257105787e-02
2.393086172344689455e+00,2.189881039692863351e-02
2.401002004008016222e+00,2.204258740330367408e-02
2.408917835671342544e+00,2.218684673558926623e-02
2.416833667334669311e+00,2.233157246884636196e-02
2.424749498997996078e+00,2.247676409635274847e-02
2.432665330661322844e+00,2.262242103835267193e-02
2.440581162324649167e+00,2.276854252337228227e-02
2.448496993987975934e+00,2.291512755694169109e-02
2.456412825651302700e+00,2.306217490320093891e-02
2.464328657314629467e+00,2.320968338717086313e-02
2.472244488977955790e+00,2.335765282806637547e-02
2.480160320641282556e+00,2.350607970356404647e-02
2.488076152304609323e+00,2.365496314311239454e-02
2.495991983967936090e+00,2.380430044413220717e-02
2.503907815631262412e+00,2.395415537452719526e-02
2.511823647294589179e+00,2.410450111132982076e-02
2.519739478957915946e+00,2.425530449329758864e-02
2.527655310621242712e+00,2.440656074704817408e-02
2.535571142284569035e+00,2.455826761050276114e-02
2.543486973947895802e+00,2.471042292387500006e-02
2.551402805611222568e+00,2.486302015845268804e-02
2.559318637274549335e+00,2.501620019674995893e-02
2.567234468937875658e+00,2.516983110924479045e-02
2.575150300601202424e+00,2.532390560877396599e-02
2.583066132264529191e+00,2.547841901472414419e-02
2.590981963927855514e+00,2.563336567328372562e-02
2.598897795591182280e+00,2.578888156441150672e-02
2.606813627254509047e+00,2.594487420509249131e-02
2.614729458917835814e+00,2.610129810157928512e-02
2.622645290581162136e+00,2.625814652088712120e-02
2.630561122244488903e+00,2.641548935859622943e-02
2.638476953907815670e+00,2.657339199794497842e-02
2.646392785571142436e+00,2.673171459352989901e-02
2.654308617234468759e+00,2.689044847333475416e-02
2.662224448897795526e+00,2.704970025878446899e-02
2.670140280561122292e+00,2.720949353082100647e-02
2.678056112224449059e+00,2.736969001388655023e-02
2.685971943887775382e+00,2.753028467742852856e-02
2.693887775551102148e+00,2.769152176167983051e-02
2.701803607214428915e+00,2.785317667431787964e-02
2.709719438877755682e+00,2.801521438382843787e-02
2.717635270541082004e+00,2.817783130421703044e-02
2.725551102204408771e+00,2.834092771973420813e-02
2.733466933867735538e+00,2.850440004346120604e-02
2.741382765531062304e+00,2.866843715852763347e-02
2.749298597194388627e+00,2.883296392064049057e-02
2.757214428857715394e+00,2.899784804764459281e-02
2.765130260521042160e+00,2.916334986963352305e-02
2.773046092184368927e+00,2.932928332547772229e-02
2.780961923847695250e+00,2.949557902030801315e-02
2.788877755511022016e+00,2.966256506854174704e-02
2.796793587174348783e+00,2.982988051827828099e-02
2.804709418837675550e+00,2.999770582730685795e-02
2.812625250501001872e+00,3.016606126177748259e-02
2.820541082164328639e+00,3.033472960288746689e-02
2.828456913827655406e+00,3.050412361679857159e-02
2.836372745490982172e+00,3.067381249030497886e-02
2.844288577154308495e+00,3.084407788327545377e-02
2.852204408817635262e+00,3.101478799364625408e-02
2.860120240480962028e+00,3.118593840690627589e-02
2.868036072144288795e+00,3.135766242469197745e-02
2.875951903807615562e+00,3.152971730304807152e-02
2.883867735470942328e+00,3.170244636665326549e-02
2.891783567134268651e+00,3.187542411973798284e-02
2.899699398797595418e+00,3.204914753632662899e-02
2.907615230460921740e+00,3.222308517600276645e-02
2.915531062124248063e+00,3.239777071349599774e-02
2.923446893787575718e+00,3.257267318098257952e-02
2.931362725450902040e+00,3.274832429271171130e-02
2.939278557114228363e+00,3.292417529984578012e-02
2.947194388777555130e+00,3.310080451392543449e-02
2.955110220440881452e+00,3.327764235944549731e-02
2.963026052104208219e+00,3.345520435893414857e-02
2.970941883767534986e+00,3.363305151555492922e-02
2.978857715430861752e+00,3.381153149722759127e-02
2.986773547094188519e+00,3.399039481354522441e-02
2.994689378757515286e+00,3.416976096009970848e-02
3.002605210420841608e+00,3.434966363116206262e-02
3.010521042084168375e+00,3.452989386454478893e-02
3.018436873747495142e+00,3.471083843889409548e-02
3.026352705410821908e+00,3.489205133763070843e-02
3.034268537074148675e+00,3.507391361840201532e-02
3.042184368737475442e+00,3.525619085136619257e-02
3.050100200400801764e+00,3.543885674840582811e-02
3.058016032064128531e+00,3.562221423840495477e-02
3.065931863727454854e+00,3.580586650368145635e-02
3.073847695390781176e+00,3.599009414304695648e-02
3.081763527054108831e+00,3.617484494340498374e-02
3.089679358717434710e+00,3.635989911934194713e-02
3.097595190380761476e+00,3.654565234800673940e-02
3.105511022044088243e+00,3.673182504429295392e-02
3.113426853707414566e+00,3.691831830554675314e-02
3.121342685370741332e+00,3.710554481418921330e-02
3.129258517034068099e+00,3.729317253668668758e-02
3.137174348697394866e+00,3.748113149936344729e-02
3.145090180360721632e+00,3.766977637288655006e-02
3.153006012024048399e+00,3.785887970160207311e-02
3.160921843687374722e+00,3.804834195272900621e-02
3.168837675350701488e+00,3.823832504449349579e-02
3.176753507014028255e+00,3.842893703966790420e-02
3.184669338677354133e+00,3.861991840014721011e-02
3.192585170340680900e+00,3.881126329586331164e-02
3.200501002004008555e+00,3.900329876383700628e-02
