# q/kF, int w**1 * S(q; w) dw
1.000000000000000021e-02,2.968259887024814426e-14
2.000000000000000042e-02,7.201421024518710747e-13
2.999999999999999889e-02,7.531030731700316528e-12
4.000000000000000083e-02,4.180533741412119341e-11
5.000000000000000278e-02,1.593544604352991836e-10
6.000000000000000472e-02,4.771361095731587868e-10
6.999999999999999278e-02,1.209055500542094027e-09
8.000000000000000167e-02,2.818957686483264168e-09
8.999999999999999667e-02,5.512845704904094032e-09
9.999999999999999167e-02,1.042292672540349074e-08
1.100000000000000006e-01,1.859042204736204434e-08
1.199999999999999956e-01,3.156882055064526493e-08
1.300000000000000044e-01,5.166270068952915043e-08
1.400000000000000133e-01,8.095217274199977433e-08
1.500000000000000222e-01,1.236067738076746615e-07
1.600000000000000033e-01,1.838845276248485951e-07
1.700000000000000122e-01,2.673917363070540077e-07
1.800000000000000211e-01,3.809627990420733774e-07
1.900000000000000300e-01,5.332437953947384013e-07
2.000000000000000111e-01,7.344658730273122561e-07
2.100000000000000200e-01,9.971024471772217761e-07
2.200000000000000011e-01,1.336805248767162649e-06
2.300000000000000100e-01,1.769568560435172336e-06
2.400000000000000189e-01,2.319148337172646769e-06
2.500000000000000000e-01,3.007806246554642494e-06
2.600000000000000089e-01,3.870516301360118798e-06
2.700000000000000178e-01,4.930467618006450698e-06
2.800000000000000266e-01,6.238345077843015459e-06
2.900000000000000355e-01,7.837473810873944453e-06
2.999999999999999889e-01,9.781798729663541931e-06
3.099999999999999978e-01,1.213578433221374987e-05
3.200000000000000067e-01,1.496591459858893434e-05
3.300000000000000155e-01,1.836218145499435568e-05
3.400000000000000244e-01,2.241670030116856650e-05
3.500000000000000333e-01,2.723892541217266561e-05
3.600000000000000422e-01,3.295499618356916444e-05
3.699999999999999400e-01,3.970672153227363510e-05
3.800000000000000600e-01,4.765808422673835316e-05
3.900000000000000133e-01,5.699364954006750581e-05
4.000000000000000222e-01,6.792749063770330540e-05
4.100000000000000311e-01,8.069671517376153524e-05
4.200000000000000400e-01,9.557331975913118890e-05
4.299999999999999933e-01,1.128639197980068097e-04
4.400000000000000022e-01,1.329276403491345265e-04
4.500000000000000111e-01,1.561492403318952391e-04
4.600000000000000200e-01,1.829821635489196777e-04
4.700000000000000289e-01,2.139214840680232961e-04
4.800000000000000377e-01,2.495562189096196056e-04
4.899999999999999911e-01,2.905207281670155119e-04
5.000000000000000000e-01,3.375401391038152692e-04
5.100000000000000089e-01,3.914328005098202581e-04
5.200000000000000178e-01,4.531343961990230815e-04
5.300000000000000266e-01,5.236982180759437635e-04
5.400000000000000355e-01,6.042675690373068781e-04
5.500000000000000444e-01,6.962041391770742342e-04
5.600000000000000533e-01,8.009788310644791031e-04
5.700000000000000622e-01,9.203271332633516065e-04
5.800000000000000711e-01,1.056115044957135285e-03
5.899999999999999689e-01,1.210448561867955627e-03
5.999999999999999778e-01,1.385908730220120197e-03
6.099999999999999867e-01,1.585167180659515082e-03
6.199999999999999956e-01,1.811340724633088602e-03
6.300000000000000044e-01,2.067961556480076967e-03
6.400000000000000133e-01,2.359154766816715185e-03
6.500000000000000222e-01,2.689457738240213017e-03
6.600000000000000311e-01,3.064024900046067885e-03
6.700000000000000400e-01,3.488668167461124719e-03
6.800000000000000488e-01,3.970808335265697299e-03
6.900000000000000577e-01,4.517588040685611463e-03
7.000000000000000666e-01,5.138756272673057277e-03
7.100000000000000755e-01,5.843915999760342962e-03
7.199999999999999734e-01,6.646873249131256614e-03
7.299999999999999822e-01,7.560678724683586940e-03
7.399999999999998801e-01,8.602405636269494157e-03
7.500000000000000000e-01,9.793176532299644257e-03
7.600000000000001199e-01,1.115792984152490057e-02
7.700000000000000178e-01,1.272608002499002640e-02
7.800000000000000266e-01,1.453533421166829098e-02
7.900000000000000355e-01,1.663374635542439264e-02
8.000000000000000444e-01,1.908429240094523804e-02
8.100000000000000533e-01,2.197240113067730483e-02
8.200000000000000622e-01,2.542141714434504110e-02
8.300000000000000711e-01,2.964592117807891142e-02
8.400000000000000799e-01,3.499625661378386737e-02
8.499999999999999778e-01,4.226471660370727246e-02
8.599999999999999867e-01,5.428787903998438802e-02
8.699999999999999956e-01,8.561931733718179671e-02
8.800000000000000044e-01,8.907435639343538880e-02
8.900000000000000133e-01,9.118661899601239462e-02
9.000000000000000222e-01,9.321765191566823427e-02
9.100000000000000311e-01,9.531962038905998635e-02
9.200000000000000400e-01,9.741553921369255908e-02
9.300000000000000488e-01,9.955020615859558331e-02
9.400000000000000577e-01,1.017039235490010129e-01
9.500000000000000666e-01,1.038753548022582074e-01
9.600000000000000755e-01,1.060738894830950685e-01
9.699999999999999734e-01,1.082976551189293729e-01
9.799999999999999822e-01,1.105425055993189964e-01
9.899999999999998801e-01,1.128095919582787487e-01
1.000000000000000000e+00,1.150995386240951102e-01
1.010000000000000009e+00,1.174126487786550377e-01
1.020000000000000018e+00,1.197490277384185703e-01
1.030000000000000027e+00,1.221086610322699439e-01
1.040000000000000036e+00,1.244914610600479088e-01
1.050000000000000044e+00,1.268972981144035339e-01
1.060000000000000053e+00,1.293259894148680589e-01
1.070000000000000062e+00,1.317773500802870423e-01
1.080000000000000071e+00,1.342511697099135204e-01
1.090000000000000080e+00,1.367484365385333855e-01
1.100000000000000089e+00,1.392702447461328097e-01
1.110000000000000098e+00,1.418139424750556599e-01
1.120000000000000107e+00,1.443792614561547616e-01
1.130000000000000115e+00,1.469703078275119701e-01
1.140000000000000124e+00,1.495828647133392308e-01
1.150000000000000133e+00,1.522182604142806595e-01
1.160000000000000142e+00,1.548776517496742167e-01
1.169999999999999929e+00,1.575586874258564640e-01
1.179999999999999938e+00,1.602642251015171104e-01
1.189999999999999947e+00,1.629917145889357433e-01
1.199999999999999956e+00,1.657425411533402226e-01
1.209999999999999964e+00,1.685169030757834863e-01
1.219999999999999973e+00,1.713128658267976112e-01
1.229999999999999982e+00,1.741333714213543216e-01
1.239999999999999991e+00,1.769766905236420662e-01
1.249999999999999778e+00,1.798422709240270478e-01
1.260000000000000009e+00,1.827303768739087231e-01
1.270000000000000018e+00,1.856431056689920589e-01
1.280000000000000027e+00,1.885785276431755642e-01
1.290000000000000036e+00,1.915366938428214039e-01
1.300000000000000044e+00,1.945177419668655538e-01
1.310000000000000053e+00,1.975217506765245268e-01
1.320000000000000062e+00,2.005487980306536744e-01
1.330000000000000071e+00,2.035989001672142140e-01
1.340000000000000080e+00,2.066720784509720188e-01
1.350000000000000089e+00,2.097683109922381661e-01
1.360000000000000098e+00,2.128875512783294510e-01
1.370000000000000107e+00,2.160297291612630899e-01
1.380000000000000115e+00,2.191947511578756502e-01
1.390000000000000124e+00,2.223824944292183414e-01
1.400000000000000133e+00,2.255936089825689717e-01
1.410000000000000142e+00,2.288285875554406656e-01
1.419999999999999929e+00,2.320860562845737662e-01
1.429999999999999938e+00,2.353658009151740060e-01
1.439999999999999947e+00,2.386691465542772894e-01
1.449999999999999956e+00,2.419961031593038381e-01
1.459999999999999964e+00,2.453448047884619898e-01
1.469999999999999973e+00,2.487176071064648164e-01
1.479999999999999760e+00,2.521131295284994578e-01
1.489999999999999991e+00,2.555311046619914706e-01
1.500000000000000000e+00,2.589731356660854300e-01
1.510000000000000009e+00,2.624370187251628961e-01
1.520000000000000240e+00,2.659250467285975139e-01
1.530000000000000027e+00,2.694353777468744826e-01
1.540000000000000036e+00,2.729686734868245757e-01
1.550000000000000044e+00,2.765258220589725258e-01
1.560000000000000053e+00,2.801045880740962724e-01
1.570000000000000062e+00,2.837075821219861571e-01
1.580000000000000071e+00,2.873336392759405777e-01
1.590000000000000080e+00,2.909818572369076151e-01
1.600000000000000089e+00,2.946526659047103425e-01
1.610000000000000098e+00,2.983482249258654351e-01
1.620000000000000107e+00,3.020662928162909933e-01
1.630000000000000115e+00,3.058070194268466824e-01
1.640000000000000124e+00,3.095705489607684657e-01
1.650000000000000133e+00,3.133569979977461895e-01
1.660000000000000142e+00,3.171664587154180981e-01
1.670000000000000151e+00,3.209990094755091339e-01
1.679999999999999938e+00,3.248546967046354594e-01
1.689999999999999947e+00,3.287335453605959024e-01
1.699999999999999956e+00,3.326355587289711591e-01
1.709999999999999964e+00,3.365607076688529320e-01
1.719999999999999973e+00,3.405089417191068946e-01
1.729999999999999982e+00,3.444801785215812484e-01
1.739999999999999991e+00,3.484743035300889580e-01
1.750000000000000222e+00,3.524911744280231907e-01
1.760000000000000009e+00,3.565306106039113354e-01
1.770000000000000018e+00,3.605928223717502767e-01
1.780000000000000027e+00,3.646799422648889233e-01
1.790000000000000036e+00,3.687893073914522146e-01
1.800000000000000044e+00,3.729205992510548628e-01
1.810000000000000053e+00,3.770756730421639391e-01
1.820000000000000062e+00,3.812545646228894247e-01
1.830000000000000071e+00,3.854546549318241810e-01
1.840000000000000080e+00,3.896794891068927624e-01
1.850000000000000089e+00,3.939266764144945809e-01
1.860000000000000098e+00,3.981963222951629966e-01
1.870000000000000107e+00,4.024902322345019212e-01
1.880000000000000115e+00,4.068056216862782626e-01
1.890000000000000124e+00,4.111456155374924593e-01
1.900000000000000133e+00,4.155075083382571699e-01
1.910000000000000142e+00,4.198926511785021631e-01
1.920000000000000151e+00,4.243016138849345364e-01
1.929999999999999938e+00,4.287313150237405668e-01
1.939999999999999947e+00,4.331870184529186263e-01
1.949999999999999956e+00,4.376645844426137466e-01
1.959999999999999964e+00,4.421636679032661665e-01
1.969999999999999973e+00,4.466876041842406386e-01
1.979999999999999760e+00,4.512348503882777084e-01
1.989999999999999991e+00,4.558041830608609013e-01
2.000000000000000000e+00,4.603958536162341408e-01
2.009999999999999787e+00,4.650100924047047002e-01
2.020000000000000018e+00,4.696495801939901682e-01
2.029999999999999805e+00,4.743117446394587988e-01
2.040000000000000036e+00,4.789966253209307911e-01
2.049999999999999822e+00,4.837043395301682258e-01
2.059999999999999609e+00,4.884349754255363774e-01
2.069999999999999840e+00,4.931885898523959977e-01
2.079999999999999627e+00,4.979652064773721909e-01
2.089999999999999858e+00,5.027648134415597658e-01
2.099999999999999645e+00,5.075873606208614053e-01
2.109999999999999876e+00,5.124327577825645852e-01
2.119999999999999662e+00,5.173008698062153687e-01
2.129999999999999893e+00,5.221915155155063548e-01
2.139999999999999680e+00,5.271065915679828962e-01
2.149999999999999911e+00,5.320455709553029156e-01
2.159999999999999698e+00,5.370069115653418601e-01
2.169999999999999929e+00,5.419902415646870031e-01
2.179999999999999716e+00,5.469951226369214048e-01
2.189999999999999947e+00,5.520265171954992223e-01
2.199999999999999734e+00,5.570802391615325977e-01
2.209999999999999964e+00,5.621546234077257065e-01
2.219999999999999751e+00,5.672538905483039962e-01
2.229999999999999982e+00,5.723769016573966306e-01
2.239999999999999769e+00,5.775191668723441696e-01
2.250000000000000000e+00,5.826896700291913644e-01
2.259999999999999787e+00,5.878794996173495324e-01
2.270000000000000462e+00,5.930942153375018400e-01
2.279999999999999805e+00,5.983308716149287054e-01
2.290000000000000036e+00,6.035912540908657808e-01
2.299999999999999822e+00,6.088735701945983125e-01
2.310000000000000053e+00,6.141808396421455374e-01
2.319999999999999840e+00,6.195071404906468127e-01
2.329999999999999627e+00,6.248622563536365693e-01
2.339999999999999858e+00,6.302359263187938820e-01
2.349999999999999645e+00,6.356338917501790364e-01
2.359999999999999876e+00,6.410568028840524235e-01
2.369999999999999662e+00,6.464995715246369956e-01
2.379999999999999893e+00,6.519653666213216514e-01
2.389999999999999680e+00,6.574580604009490070e-01
2.399999999999999911e+00,6.629716481138281381e-01
2.409999999999999698e+00,6.685065681007241745e-01
2.419999999999999929e+00,6.740632420052341534e-01
2.429999999999999716e+00,6.796475321093823352e-01
2.439999999999999947e+00,6.852543095198613265e-01
2.449999999999999734e+00,6.908832948655245776e-01
2.459999999999999964e+00,6.965347681533504698e-01
2.469999999999999751e+00,7.022089521680130453e-01
2.479999999999999982e+00,7.079060568402667508e-01
2.489999999999999769e+00,7.136262207208972086e-01
2.499999999999999556e+00,7.193695424084901591e-01
2.509999999999999787e+00,7.251360699004124610e-01
2.520000000000000018e+00,7.309258026270691877e-01
2.529999999999999805e+00,7.367386756111080626e-01
2.540000000000000036e+00,7.425745371232571612e-01
2.549999999999999822e+00,7.484331993945665396e-01
2.560000000000000053e+00,7.543143671168403008e-01
2.569999999999999840e+00,7.602176904056091589e-01
2.579999999999999627e+00,7.661426888157009119e-01
2.589999999999999858e+00,7.720940335589890902e-01
2.599999999999999645e+00,7.780704730646340606e-01
2.609999999999999876e+00,7.840680687352609146e-01
2.619999999999999662e+00,7.900860009876556900e-01
2.629999999999999893e+00,7.961247907975723681e-01
2.639999999999999680e+00,8.021953444412587286e-01
2.649999999999999911e+00,8.082847533658340522e-01
2.659999999999999698e+00,8.143916976692214815e-01
2.669999999999999929e+00,8.205303296325483497e-01
2.679999999999999716e+00,8.266889804035798539e-01
2.689999999999999947e+00,8.328639379669025011e-01
2.699999999999999734e+00,8.390741659108585937e-01
2.709999999999999964e+00,8.452973655095292749e-01
2.719999999999999751e+00,8.515499122301058987e-01
2.729999999999999538e+00,8.578218824156945699e-01
2.739999999999999769e+00,8.641180315897905029e-01
2.750000000000000000e+00,8.704369256028630097e-01
2.759999999999999787e+00,8.767794003777803491e-01
2.770000000000000018e+00,8.831425779331980586e-01
2.779999999999999805e+00,8.895336708598520215e-01
2.790000000000000036e+00,8.959374913482970326e-01
2.799999999999999822e+00,9.023791303555704912e-01
2.810000000000000053e+00,9.088328760976067677e-01
2.819999999999999840e+00,9.153124329602736475e-01
2.829999999999999627e+00,9.218197051172892786e-01
2.839999999999999858e+00,9.283416092318086399e-01
2.849999999999999645e+00,9.348897512582685643e-01
2.859999999999999876e+00,9.414670298184133479e-01
2.869999999999999662e+00,9.480611739167248420e-01
2.879999999999999893e+00,9.546730072414865154e-01
2.889999999999999680e+00,9.613170323168606091e-01
2.899999999999999911e+00,9.679856099399509750e-01
2.909999999999999698e+00,9.746736074086516100e-01
2.919999999999999929e+00,9.813816398738298696e-01
2.929999999999999716e+00,9.881105454107009800e-01
2.939999999999999947e+00,9.948628301859613332e-01
2.949999999999999734e+00,1.001646876015126697e+00
2.959999999999999520e+00,1.008452307649380542e+00
2.969999999999999751e+00,1.015279570797731568e+00
2.979999999999999982e+00,1.022129008656361027e+00
2.989999999999999769e+00,1.029000944062284484e+00
3.000000000000000000e+00,1.035895621991582249e+00
3.009999999999999787e+00,1.042813202422655072e+00
3.020000000000000018e+00,1.049753752503115756e+00
3.029999999999999805e+00,1.056717237964061473e+00
3.040000000000000480e+00,1.063703513712834559e+00
3.049999999999999822e+00,1.070712313523754178e+00
3.060000000000000053e+00,1.077743238732504993e+00
3.069999999999999840e+00,1.084795745816485635e+00
3.080000000000000071e+00,1.091869132681673626e+00
3.089999999999999858e+00,1.098968914955913201e+00
3.099999999999999645e+00,1.106100647155336514e+00
3.109999999999999876e+00,1.113253322015261837e+00
3.119999999999999662e+00,1.120425661335133105e+00
3.129999999999999893e+00,1.127616384084926038e+00
3.139999999999999680e+00,1.134823554013079994e+00
3.149999999999999911e+00,1.142066564830649833e+00
3.159999999999999698e+00,1.149338052522689946e+00
3.169999999999999929e+00,1.156623611423106324e+00
3.179999999999999716e+00,1.163920756692768510e+00
3.189999999999999947e+00,1.171258206402369773e+00
3.199999999999999734e+00,1.178620921060583360e+00
3.209999999999999964e+00,1.185990527729211985e+00
3.219999999999999751e+00,1.193389021274224637e+00
3.229999999999999982e+00,1.200824014297635411e+00
3.239999999999999769e+00,1.208259160752728434e+00
3.250000000000000000e+00,1.215734874087604167e+00
3.259999999999999787e+00,1.223232487156067583e+00
3.270000000000000462e+00,1.230730247736429916e+00
3.279999999999999805e+00,1.238289567391395396e+00
3.290000000000000036e+00,1.245834550215494607e+00
3.299999999999999822e+00,1.253435155565652659e+00
3.310000000000000053e+00,1.261033332069988910e+00
3.319999999999999840e+00,1.268672934767925309e+00
3.330000000000000071e+00,1.276319639890478808e+00
3.339999999999999858e+00,1.284004836700138652e+00
3.349999999999999645e+00,1.291693622848045342e+00
3.359999999999999876e+00,1.299430672220226457e+00
3.369999999999999662e+00,1.307152974318852801e+00
3.379999999999999893e+00,1.314947695481899492e+00
3.389999999999999680e+00,1.322720097098094572e+00
3.399999999999999911e+00,1.330550178834154496e+00
3.409999999999999698e+00,1.338389479758870459e+00
3.419999999999999929e+00,1.346229008093153601e+00
3.429999999999999716e+00,1.354139404519563383e+00
3.439999999999999947e+00,1.362037084915731278e+00
3.449999999999999734e+00,1.369955424018568735e+00
3.459999999999999964e+00,1.377931273460108796e+00
3.469999999999999751e+00,1.385900020348070694e+00
3.479999999999999982e+00,1.393873347011558295e+00
3.489999999999999769e+00,1.401925517088290052e+00
3.500000000000000444e+00,1.409975774085021172e+00
3.509999999999999787e+00,1.418025829279875527e+00
3.520000000000000018e+00,1.426107056308012044e+00
3.529999999999999805e+00,1.434246239694002778e+00
3.540000000000000036e+00,1.442389951684790894e+00
3.549999999999999822e+00,1.450540265133471562e+00
3.560000000000000053e+00,1.458698708644312392e+00
3.569999999999999840e+00,1.466912584121578211e+00
3.580000000000000071e+00,1.475162659721541480e+00
3.589999999999999858e+00,1.483424295742093335e+00
3.599999999999999645e+00,1.491699230326424042e+00
3.609999999999999876e+00,1.499989471680851727e+00
3.619999999999999662e+00,1.508296185759768537e+00
3.629999999999999893e+00,1.516620908789916733e+00
3.639999999999999680e+00,1.524987642699294765e+00
3.649999999999999911e+00,1.533394731666076538e+00
3.659999999999999698e+00,1.541820289724624704e+00
3.669999999999999929e+00,1.550265315647930464e+00
3.679999999999999716e+00,1.558730691412676839e+00
3.689999999999999947e+00,1.567217170794122483e+00
3.699999999999999734e+00,1.575725366443418540e+00
3.709999999999999964e+00,1.584255735508533824e+00
3.719999999999999751e+00,1.592808563702791780e+00
3.729999999999999538e+00,1.601383947690683707e+00
3.739999999999999769e+00,1.609981775588512409e+00
3.750000000000000000e+00,1.618601705418528658e+00
3.759999999999999787e+00,1.627243141248325253e+00
3.770000000000000018e+00,1.635905298156478116e+00
3.779999999999999805e+00,1.644587513737310047e+00
3.790000000000000036e+00,1.653287754473168558e+00
3.799999999999999822e+00,1.662004120070567303e+00
3.810000000000000053e+00,1.670734788809964178e+00
3.819999999999999840e+00,1.679536374712023328e+00
3.830000000000000071e+00,1.688369835582911538e+00
3.839999999999999858e+00,1.697221118355042746e+00
3.849999999999999645e+00,1.706086376082034173e+00
3.859999999999999876e+00,1.714961748010838560e+00
3.869999999999999662e+00,1.723843129818911635e+00
3.879999999999999893e+00,1.732724621080805605e+00
3.889999999999999680e+00,1.741630092667486140e+00
3.899999999999999911e+00,1.750654465332408982e+00
3.909999999999999698e+00,1.759678288732166695e+00
3.919999999999999929e+00,1.768694420713503357e+00
3.929999999999999716e+00,1.777693762942440747e+00
3.939999999999999947e+00,1.786668080555762428e+00
3.949999999999999734e+00,1.795834005824918700e+00
3.959999999999999520e+00,1.804979237299908057e+00
3.969999999999999751e+00,1.814091247035683141e+00
3.979999999999999982e+00,1.823156578819249862e+00
3.989999999999999769e+00,1.832379502928657589e+00
