# q/kF, int w**0 * S(q; w) dw
5.000000000000000278e-02,7.629474254260663024e-10
5.791583166332665150e-02,1.594209980759703491e-09
6.583166332665331411e-02,3.032045287961585844e-09
7.374749498997995589e-02,5.363061500751298733e-09
8.166332665330661156e-02,8.955333622539588334e-09
8.957915831663328110e-02,1.426882706066077211e-08
9.749498997995992289e-02,2.186569583576530878e-08
1.054108216432865786e-01,3.242835165714509484e-08
1.133266533066132342e-01,4.676236089913565219e-08
1.212424849699398899e-01,6.582698158261888907e-08
1.291583166332665455e-01,9.073443717024095071e-08
1.370741482965932012e-01,1.227624875014641156e-07
1.449899799599198569e-01,1.633994266659374385e-07
1.529058116232465125e-01,2.143153028182310815e-07
1.608216432865731682e-01,2.774355494728651181e-07
1.687374749498998239e-01,3.549036505225728876e-07
1.766533066132264795e-01,4.491685897008081225e-07
1.845691382765531630e-01,5.629213274496485091e-07
1.924849699398797909e-01,6.992029836243927017e-07
2.004008016032064465e-01,8.614318236327748520e-07
2.083166332665331022e-01,1.053284190952824581e-06
2.162324649298597301e-01,1.278963543303432560e-06
2.241482965931864413e-01,1.542998226691670174e-06
2.320641282565130692e-01,1.850439510869707663e-06
2.399799599198396971e-01,2.206793947824070679e-06
2.478957915831663250e-01,2.618238900374562474e-06
2.558116232464929807e-01,3.091237524321467112e-06
2.637274549098196363e-01,3.633299790542945038e-06
2.716432865731462920e-01,4.252238144840803029e-06
2.795591182364729477e-01,4.956627459292936057e-06
2.874749498997996033e-01,5.756244189677291080e-06
2.953907815631262590e-01,6.660923160380489939e-06
3.033066132264529147e-01,7.681991226009424547e-06
3.112224448897795703e-01,8.831354794594737379e-06
3.191382765531062260e-01,1.012268146515900384e-05
3.270541082164328817e-01,1.156962457830651259e-05
3.349699398797595373e-01,1.318765491614326493e-05
3.428857715430861930e-01,1.499336470669577401e-05
3.508016032064128487e-01,1.700450177975236027e-05
3.587174348697395043e-01,1.924141706295264226e-05
3.666332665330661600e-01,2.172391975512630728e-05
3.745490981963928157e-01,2.447458758737900089e-05
3.824649298597195268e-01,2.751854141885148340e-05
3.903807615230461270e-01,3.088108616368299796e-05
3.982965931863727826e-01,3.458985904860708069e-05
4.062124248496994383e-01,3.867675586936793111e-05
4.141282565130260940e-01,4.317339005533387910e-05
4.220440881763526941e-01,4.811427058618366140e-05
4.299599198396792943e-01,5.353690157285004417e-05
4.378757515030060055e-01,5.948170504698762511e-05
4.457915831663327166e-01,6.599120908722299814e-05
4.537074148296593168e-01,7.311237765351237192e-05
4.616232464929859725e-01,8.089658066871334104e-05
4.695390781563125726e-01,8.939350051291520118e-05
4.774549098196392838e-01,9.865887266690403373e-05
4.853707414829659950e-01,1.087613784343158913e-04
4.932865731462925951e-01,1.197557207810036567e-04
5.012024048096193063e-01,1.317217203189875437e-04
5.091182364729459620e-01,1.447230647365448227e-04
5.170340681362726176e-01,1.588517988087918191e-04
5.249498997995992733e-01,1.741837628784799062e-04
5.328657314629259290e-01,1.908095294273522277e-04
5.407815631262525846e-01,2.088345526021878314e-04
5.486973947895792403e-01,2.283594756432802419e-04
5.566132264529058959e-01,2.494920742426831573e-04
5.645290581162325516e-01,2.723522410865458656e-04
5.724448897795592073e-01,2.970670060417613637e-04
5.803607214428858629e-01,3.237719827636824864e-04
5.882765531062125186e-01,3.526112463166886329e-04
5.961923847695391743e-01,3.837396779553306752e-04
6.041082164328658299e-01,4.173200393578493320e-04
6.120240480961924856e-01,4.535265761376704435e-04
6.199398797595191413e-01,4.925449302082972498e-04
6.278557114228457969e-01,5.345719856522715679e-04
6.357715430861724526e-01,5.798422553302508753e-04
6.436873747494991083e-01,6.285623132315428527e-04
6.516032064128257639e-01,6.809671753287786095e-04
6.595190380761524196e-01,7.373247236268203877e-04
6.674348697394790753e-01,7.979271370897202511e-04
6.753507014028057309e-01,8.630277879536772841e-04
6.832665330661323866e-01,9.329811531537723695e-04
6.911823647294590423e-01,1.008090933571790518e-03
6.990981963927856979e-01,1.088725262264351751e-03
7.070140280561123536e-01,1.175262171571570154e-03
7.149298597194390092e-01,1.268105016660339614e-03
7.228456913827657759e-01,1.367672790659585011e-03
7.307615230460922096e-01,1.474462882060665345e-03
7.386773547094189762e-01,1.588893793441717352e-03
7.465931863727456319e-01,1.711585567075632605e-03
7.545090180360722876e-01,1.843025194840762753e-03
7.624248496993990543e-01,1.983789705048867938e-03
7.703406813627254879e-01,2.134598347935272745e-03
7.782565130260522546e-01,2.296082041492555990e-03
7.861723446893789102e-01,2.468935552575697231e-03
7.940881763527055659e-01,2.653933380707211229e-03
8.020040080160323326e-01,2.851941533220976252e-03
8.099198396793588772e-01,3.063859408595413520e-03
8.178356713426853108e-01,3.290572060543924329e-03
8.257515030060120775e-01,3.533085561934190197e-03
8.336673346693387332e-01,3.792474434053092185e-03
8.415831663326653889e-01,4.069886730492712316e-03
8.494989979959921556e-01,4.366549620551533721e-03
8.574148296593185892e-01,4.683777487810349485e-03
8.653306613226453559e-01,5.022967801563578243e-03
8.732464929859720115e-01,5.385619622259854231e-03
8.811623246492986672e-01,5.773341188737020346e-03
8.890781563126254339e-01,6.187841725268787216e-03
8.969939879759518675e-01,6.630958547284786231e-03
9.049098196392786342e-01,7.104656031444859729e-03
9.128256513026052898e-01,7.611033614139124659e-03
9.207414829659319455e-01,8.152340570475770029e-03
9.286573146292587122e-01,8.730987942161354959e-03
9.365731462925851458e-01,9.349613178954368359e-03
9.444889779559119125e-01,1.001124226843823350e-02
9.524048096192385682e-01,1.071862225544572417e-02
9.603206412825652238e-01,1.147494260849406776e-02
9.682364729458919905e-01,1.228362095980933127e-02
9.761523046092184241e-01,1.314864523387814996e-02
9.840681362725451908e-01,1.407420031144929543e-02
9.919839679358718465e-01,1.506417153778802191e-02
9.998997995991985022e-01,1.612311981068050709e-02
1.007815631262525047e+00,1.725707069520741876e-02
1.015731462925851813e+00,1.847067413675734446e-02
1.023647294589178358e+00,1.976948143458481452e-02
1.031563126252505125e+00,2.116132987017735334e-02
1.039478957915831669e+00,2.265188359416318506e-02
1.047394789579158436e+00,2.424866338597147369e-02
1.055310621242485203e+00,2.596123147269551595e-02
1.063226452905811747e+00,2.779632044443946376e-02
1.071142284569138292e+00,2.976615020042552157e-02
1.079058116232465059e+00,3.187900919759503737e-02
1.086973947895791603e+00,3.414808351060438785e-02
1.094889779559118370e+00,3.658501507660474883e-02
1.102805611222444915e+00,3.920435855833735023e-02
1.110721442885771681e+00,4.202086374872804342e-02
1.118637274549098226e+00,4.505212988968358007e-02
1.126553106212424993e+00,4.831524083749868387e-02
1.134468937875751537e+00,5.183364843099801111e-02
1.142384769539078304e+00,5.562504123515497889e-02
1.150300601202404849e+00,5.972347766758809295e-02
1.158216432865731615e+00,6.414826569607853801e-02
1.166132264529058160e+00,6.893851285847756027e-02
1.174048096192384927e+00,7.412822030854675226e-02
1.181963927855711471e+00,7.975310353152584297e-02
1.189879759519038238e+00,8.587610945035828447e-02
1.197795591182364783e+00,9.253744766957186507e-02
1.205711422845691549e+00,9.979827834853131907e-02
1.213627254509018094e+00,1.077584403860371021e-01
1.221543086172344861e+00,1.164839314676419657e-01
1.229458917835671405e+00,1.260803569821268844e-01
1.237374749498998172e+00,1.367083820657188920e-01
1.245290581162324717e+00,1.485306404798123203e-01
1.253206412825651483e+00,1.617503446107847742e-01
1.261122244488978028e+00,1.766592645997209499e-01
1.269038076152304795e+00,1.937762951092623365e-01
1.276953907815631339e+00,2.137644934730867641e-01
1.284869739478958106e+00,2.377719674284035078e-01
1.292785571142284651e+00,2.682401342442511383e-01
1.300701402805611417e+00,3.121368388811213701e-01
1.308617234468937962e+00,4.241392242005546098e-01
1.316533066132264729e+00,4.774608658286129126e-01
1.324448897795591273e+00,4.839586029495742681e-01
1.332364729458918040e+00,4.908028626730791544e-01
1.340280561122244585e+00,4.977101983452996703e-01
1.348196392785571351e+00,5.046918683245679160e-01
1.356112224448897896e+00,5.117461000707677066e-01
1.364028056112224663e+00,5.188703286208363741e-01
1.371943887775551207e+00,5.260841779904434912e-01
1.379859719438877974e+00,5.333563609668395822e-01
1.387775551102204519e+00,5.406872921750135452e-01
1.395691382765531285e+00,5.480786664029899669e-01
1.403607214428857830e+00,5.555313330457437582e-01
1.411523046092184597e+00,5.630456298607652288e-01
1.419438877755511141e+00,5.706215721784441142e-01
1.427354709418837908e+00,5.782589136477450653e-01
1.435270541082164675e+00,5.859573740020802557e-01
1.443186372745491219e+00,5.937164228006538425e-01
1.451102204408817764e+00,6.015355798511077268e-01
1.459018036072144753e+00,6.094141737578666618e-01
1.466933867735471075e+00,6.173514835103273146e-01
1.474849699398797842e+00,6.253467582406144754e-01
1.482765531062124387e+00,6.333991223713435481e-01
1.490681362725451153e+00,6.415079668676887392e-01
1.498597194388777698e+00,6.496760896483546599e-01
1.506513026052104465e+00,6.578981824420728763e-01
1.514428857715430787e+00,6.661730538018126868e-01
1.522344689378757776e+00,6.744994290368195866e-01
1.530260521042084321e+00,6.828759269578728031e-01
1.538176352705411309e+00,6.913010252751274898e-01
1.546092184368737632e+00,6.997732213627361197e-01
1.554008016032064399e+00,7.082907285513887485e-01
1.561923847695390943e+00,7.168569420934032266e-01
1.569839679358717266e+00,7.254653591887155750e-01
1.577755511022044255e+00,7.341132110040667902e-01
1.585671342685370799e+00,7.427983444322198148e-01
1.593587174348697344e+00,7.515184473388849540e-01
1.601503006012024111e+00,7.602744604771465298e-01
1.609418837675350877e+00,7.690632800032608518e-01
1.617334669338677422e+00,7.778791574552785804e-01
1.625250501002004189e+00,7.867191342386989916e-01
1.633166332665330955e+00,7.955817921310293084e-01
1.641082164328657500e+00,8.044673473989037982e-01
1.648997995991983823e+00,8.133672619521699065e-01
1.656913827655310811e+00,8.222779224960409250e-01
1.664829659318637356e+00,8.311991304585891749e-01
1.672745490981963901e+00,8.401265883967826698e-01
1.680661322645290667e+00,8.490527641737615205e-01
1.688577154308617434e+00,8.579747449043434449e-01
1.696492985971943979e+00,8.668922134144694258e-01
1.704408817635270745e+00,8.757945374231863589e-01
1.712324649298597512e+00,8.846780057006861098e-01
1.720240480961924057e+00,8.935421911592048572e-01
1.728156312625250379e+00,9.023754975246083276e-01
1.736072144288577368e+00,9.111749040880557926e-01
1.743987975951903913e+00,9.199365715835925439e-01
1.751903807615230457e+00,9.286495281124831358e-01
1.759819639278557224e+00,9.373128124340575074e-01
1.767735470941883991e+00,9.459164281335238345e-01
1.775651302605210535e+00,9.544531330798602387e-01
1.783567134268537302e+00,9.629199529567211702e-01
1.791482965931864069e+00,9.713035679595439786e-01
1.799398797595190613e+00,9.796032528896154723e-01
1.807314629258516936e+00,9.878053985152670524e-01
1.815230460921843925e+00,9.959057669935006407e-01
1.823146292585170469e+00,1.003894471747247330e+00
1.831062124248497014e+00,1.011763517839237236e+00
1.838977955911823781e+00,1.019505305066162881e+00
1.846893787575150547e+00,1.027109457513231128e+00
1.854809619238477092e+00,1.034569579695894914e+00
1.862725450901803859e+00,1.041874129715280928e+00
1.870641282565130625e+00,1.049016840985996568e+00
1.878557114228457170e+00,1.055986309073733587e+00
1.886472945891783493e+00,1.062775359441921363e+00
1.894388777555110703e+00,1.069373955406087040e+00
1.902304609218437026e+00,1.075773171972162601e+00
1.910220440881763571e+00,1.081965493817207413e+00
1.918136272545090337e+00,1.087939380157663116e+00
1.926052104208417104e+00,1.093691095681084358e+00
1.933967935871743649e+00,1.099206841393074008e+00
1.941883767535070415e+00,1.104484340286507216e+00
1.949799599198397182e+00,1.109512007229167985e+00
1.957715430861723727e+00,1.114284116697511484e+00
1.965631262525050049e+00,1.118795966429146471e+00
1.973547094188377260e+00,1.123037904707805401e+00
1.981462925851703583e+00,1.127009340806307991e+00
1.989378757515030127e+00,1.130702716813507314e+00
1.997294589178356894e+00,1.134113482981081278e+00
2.005210420841683661e+00,1.137264373921944127e+00
2.013126252505009983e+00,1.140217056689066588e+00
2.021042084168336750e+00,1.142978852849486415e+00
2.028957915831663517e+00,1.145555480371156953e+00
2.036873747494990283e+00,1.147944792565639638e+00
2.044789579158316606e+00,1.150149532282062070e+00
2.052705410821643373e+00,1.152177195184648673e+00
2.060621242484970139e+00,1.154026847193982963e+00
2.068537074148296462e+00,1.155702129639462505e+00
2.076452905811623229e+00,1.157209405327139784e+00
2.084368737474949995e+00,1.158552591781850882e+00
2.092284569138276318e+00,1.159734432728937392e+00
2.100200400801603084e+00,1.160759872507083790e+00
2.108116232464929851e+00,1.161636880594950405e+00
2.116032064128256618e+00,1.162368775954750522e+00
2.123947895791582940e+00,1.162960229620172425e+00
2.131863727454909707e+00,1.163416964240870488e+00
2.139779559118236474e+00,1.163746316439852269e+00
2.147695390781563241e+00,1.163954269547469167e+00
2.155611222444889563e+00,1.164045134394656955e+00
2.163527054108216330e+00,1.164024856800686569e+00
2.171442885771543096e+00,1.163899518896390983e+00
2.179358717434869863e+00,1.163676084992905757e+00
2.187274549098196186e+00,1.163361040792808110e+00
2.195190380761522952e+00,1.162958563107280741e+00
2.203106212424849719e+00,1.162474394705059311e+00
2.211022044088176486e+00,1.161914176924762510e+00
2.218937875751502808e+00,1.161283330908909006e+00
2.226853707414829575e+00,1.160587257622668123e+00
2.234769539078156342e+00,1.159832617979011937e+00
2.242685370741483109e+00,1.159023032729617819e+00
2.250601202404809431e+00,1.158162810591490288e+00
2.258517034068136198e+00,1.157256592349021895e+00
2.266432865731462964e+00,1.156308694066231268e+00
2.274348697394789731e+00,1.155323153145961124e+00
2.282264529058116054e+00,1.154303856806721207e+00
2.290180360721442820e+00,1.153254648061607712e+00
2.298096192384769587e+00,1.152178728063987467e+00
2.306012024048096354e+00,1.151079546832761480e+00
2.313927855711422676e+00,1.149959961985512091e+00
2.321843687374749443e+00,1.148822939029243262e+00
2.329759519038076210e+00,1.147671335333577902e+00
2.337675350701402976e+00,1.146507605792249862e+00
2.345591182364729299e+00,1.145333726164893262e+00
2.353507014028056066e+00,1.144151847730787486e+00
2.361422845691382832e+00,1.142963788494972599e+00
2.369338677354709599e+00,1.141771326899478689e+00
2.377254509018035922e+00,1.140576385726967290e+00
2.385170340681362688e+00,1.139380149436179046e+00
2.393086172344689455e+00,1.138184203957839369e+00
2.401002004008016222e+00,1.136989994312527896e+00
2.408917835671342544e+00,1.135798869387508292e+00
2.416833667334669311e+00,1.134611559203510645e+00
2.424749498997996078e+00,1.133429039895562429e+00
2.432665330661322844e+00,1.132252177413715755e+00
2.440581162324649167e+00,1.131081734013512641e+00
2.448496993987975934e+00,1.129918374362459010e+00
2.456412825651302700e+00,1.128762671267817819e+00
2.464328657314629467e+00,1.127615176303213396e+00
2.472244488977955790e+00,1.126476643499807917e+00
2.480160320641282556e+00,1.125347085331391384e+00
2.488076152304609323e+00,1.124227078834408422e+00
2.495991983967936090e+00,1.123116928133136128e+00
2.503907815631262412e+00,1.122018315793324117e+00
2.511823647294589179e+00,1.120930780319508990e+00
2.519739478957915946e+00,1.119854028552177194e+00
2.527655310621242712e+00,1.118787870473451296e+00
2.535571142284569035e+00,1.117732567830794999e+00
2.543486973947895802e+00,1.116688397757069406e+00
2.551402805611222568e+00,1.115655120853556559e+00
2.559318637274549335e+00,1.114635862049076609e+00
2.567234468937875658e+00,1.113627744388663965e+00
2.575150300601202424e+00,1.112630707057983281e+00
2.583066132264529191e+00,1.111644692373729537e+00
2.590981963927855514e+00,1.110669611627419728e+00
2.598897795591182280e+00,1.109708368110355003e+00
2.606813627254509047e+00,1.108758781539151972e+00
2.614729458917835814e+00,1.107819880976793625e+00
2.622645290581162136e+00,1.106891474143022691e+00
2.630561122244488903e+00,1.105975028306180885e+00
2.638476953907815670e+00,1.105071994211604292e+00
2.646392785571142436e+00,1.104179011161679824e+00
2.654308617234468759e+00,1.103295802218914767e+00
2.662224448897795526e+00,1.102424822606143939e+00
2.670140280561122292e+00,1.101566213579729059e+00
2.678056112224449059e+00,1.100716721270708742e+00
2.685971943887775382e+00,1.099876815945079578e+00
2.693887775551102148e+00,1.099050745388831629e+00
2.701803607214428915e+00,1.098234117018996425e+00
2.709719438877755682e+00,1.097425783853651637e+00
2.717635270541082004e+00,1.096630105746102313e+00
2.725551102204408771e+00,1.095844169277373270e+00
2.733466933867735538e+00,1.095066605759700273e+00
2.741382765531062304e+00,1.094300466282331463e+00
2.749298597194388627e+00,1.093544160808499921e+00
2.757214428857715394e+00,1.092795231067701378e+00
2.765130260521042160e+00,1.092058400633792115e+00
2.773046092184368927e+00,1.091329694562309438e+00
2.780961923847695250e+00,1.090608246346592924e+00
2.788877755511022016e+00,1.089899847000634692e+00
2.796793587174348783e+00,1.089197239939528883e+00
2.804709418837675550e+00,1.088503987312210208e+00
2.812625250501001872e+00,1.087820188982568270e+00
2.820541082164328639e+00,1.087141870963498791e+00
2.828456913827655406e+00,1.086476602109289091e+00
2.836372745490982172e+00,1.085815870822349538e+00
2.844288577154308495e+00,1.085165104015823667e+00
2.852204408817635262e+00,1.084521483055936208e+00
2.860120240480962028e+00,1.083884965194448657e+00
2.868036072144288795e+00,1.083257807693515762e+00
2.875951903807615562e+00,1.082635412489272531e+00
2.883867735470942328e+00,1.082024035034735876e+00
2.891783567134268651e+00,1.081415610156115203e+00
2.899699398797595418e+00,1.080819292193828662e+00
2.907615230460921740e+00,1.080225024856983351e+00
2.915531062124248063e+00,1.079642642938884567e+00
2.923446893787575718e+00,1.079062266998071840e+00
2.931362725450902040e+00,1.078493677229448888e+00
2.939278557114228363e+00,1.077926470013587101e+00
2.947194388777555130e+00,1.077371136945709296e+00
2.955110220440881452e+00,1.076817149601580592e+00
2.963026052104208219e+00,1.076273719681516861e+00
2.970941883767534986e+00,1.075733344599447028e+00
2.978857715430861752e+00,1.075201620907585420e+00
2.986773547094188519e+00,1.074674023979873549e+00
2.994689378757515286e+00,1.074152568094059568e+00
3.002605210420841608e+00,1.073638301720695409e+00
3.010521042084168375e+00,1.073126752054647248e+00
3.018436873747495142e+00,1.072624739663582183e+00
3.026352705410821908e+00,1.072124987712508748e+00
3.034268537074148675e+00,1.071633282366783568e+00
3.042184368737475442e+00,1.071145753926610933e+00
3.050100200400801764e+00,1.070662107717864853e+00
3.058016032064128531e+00,1.070186927954783762e+00
3.065931863727454854e+00,1.069714063619916500e+00
3.073847695390781176e+00,1.069247500247755056e+00
3.081763527054108831e+00,1.068786787884926648e+00
3.089679358717434710e+00,1.068327842048319987e+00
3.097595190380761476e+00,1.067877360873436654e+00
3.105511022044088243e+00,1.067430617362431278e+00
3.113426853707414566e+00,1.066985789403855689e+00
3.121342685370741332e+00,1.066549726709017598e+00
3.129258517034068099e+00,1.066116960295223626e+00
3.137174348697394866e+00,1.065685913581547739e+00
3.145090180360721632e+00,1.065262962650117995e+00
3.153006012024048399e+00,1.064843535830810151e+00
3.160921843687374722e+00,1.064426822362243952e+00
3.168837675350701488e+00,1.064014656403030834e+00
3.176753507014028255e+00,1.063608969220509293e+00
3.184669338677354133e+00,1.063205852748488001e+00
3.192585170340680900e+00,1.062804515892281199e+00
3.200501002004008555e+00,1.062410593580487506e+00
