# q/kF, int w**1 * S(q; w) dw
5.000000000000000278e-02,1.734661140997320591e-13
5.791583166332665150e-02,4.200328144395691385e-13
6.583166332665331411e-02,9.084603151185951507e-13
7.374749498997995589e-02,1.800982269711253709e-12
8.166332665330661156e-02,3.332053660795064251e-12
8.957915831663328110e-02,5.827626821027861799e-12
9.749498997995992289e-02,9.725876074806236081e-12
1.054108216432865786e-01,1.560688144423873819e-11
1.133266533066132342e-01,2.421315527004697769e-11
1.212424849699398899e-01,3.649550522745870625e-11
1.291583166332665455e-01,5.363667345535321472e-11
1.370741482965932012e-01,7.708760724351020805e-11
1.449899799599198569e-01,1.086634271374372449e-10
1.529058116232465125e-01,1.503953242596804101e-10
1.608216432865731682e-01,2.049665334812399022e-10
1.687374749498998239e-01,2.753739492393370845e-10
1.766533066132264795e-01,3.652345244871892596e-10
1.845691382765531630e-01,4.787217007518982860e-10
1.924849699398797909e-01,6.207477797566150164e-10
2.004008016032064465e-01,7.970572211287247129e-10
2.083166332665331022e-01,1.014099003467359288e-09
2.162324649298597301e-01,1.279495672191319855e-09
2.241482965931864413e-01,1.601776050691116233e-09
2.320641282565130692e-01,1.990760473781579094e-09
2.399799599198396971e-01,2.457489601892462927e-09
2.478957915831663250e-01,3.014787847230501935e-09
2.558116232464929807e-01,3.676446307540290725e-09
2.637274549098196363e-01,4.458943985898429999e-09
2.716432865731462920e-01,5.379892210071829305e-09
2.795591182364729477e-01,6.459161385604643099e-09
2.874749498997996033e-01,7.720009815252825483e-09
2.953907815631262590e-01,9.186091003615400878e-09
3.033066132264529147e-01,1.088579454397238503e-08
3.112224448897795703e-01,1.284925096368103251e-08
3.191382765531062260e-01,1.511189886636173007e-08
3.270541082164328817e-01,1.770990341237903256e-08
3.349699398797595373e-01,2.068493649771311448e-08
3.428857715430861930e-01,2.408243673113350538e-08
3.508016032064128487e-01,2.795199026656749672e-08
3.587174348697395043e-01,3.235144725406226159e-08
3.666332665330661600e-01,3.733798548085649315e-08
3.745490981963928157e-01,4.297739469204897457e-08
3.824649298597195268e-01,4.934461260762925395e-08
3.903807615230461270e-01,5.651556117175452209e-08
3.982965931863727826e-01,6.457431434770253216e-08
4.062124248496994383e-01,7.361961108913438732e-08
4.141282565130260940e-01,8.375010013603810795e-08
4.220440881763526941e-01,9.507432021251097544e-08
4.299599198396792943e-01,1.077120109522702150e-07
4.378757515030060055e-01,1.217927879530223180e-07
4.457915831663327166e-01,1.374548184515283401e-07
4.537074148296593168e-01,1.548520069784019451e-07
4.616232464929859725e-01,1.741539803531073818e-07
4.695390781563125726e-01,1.955250940478870299e-07
4.774549098196392838e-01,2.191508050433637811e-07
4.853707414829659950e-01,2.452647831708594626e-07
4.932865731462925951e-01,2.740478726876944616e-07
5.012024048096193063e-01,3.057759997396197671e-07
5.091182364729459620e-01,3.406604295649095152e-07
5.170340681362726176e-01,3.790232793459414888e-07
5.249498997995992733e-01,4.211195614864583246e-07
5.328657314629259290e-01,4.672609486856981725e-07
5.407815631262525846e-01,5.178153176692645743e-07
5.486973947895792403e-01,5.731290216792331725e-07
5.566132264529058959e-01,6.335812324604374307e-07
5.645290581162325516e-01,6.995634908986656996e-07
5.724448897795592073e-01,7.715393420459677708e-07
5.803607214428858629e-01,8.499707900796557599e-07
5.882765531062125186e-01,9.353559539019746438e-07
5.961923847695391743e-01,1.028228967690878084e-06
6.041082164328658299e-01,1.129150894759195508e-06
6.120240480961924856e-01,1.238719367869573921e-06
6.199398797595191413e-01,1.357568023835852616e-06
6.278557114228457969e-01,1.486365330532886309e-06
6.357715430861724526e-01,1.625937002553891722e-06
6.436873747494991083e-01,1.776957965411039230e-06
6.516032064128257639e-01,1.940210790308308599e-06
6.595190380761524196e-01,2.116606599576991746e-06
6.674348697394790753e-01,2.307141380994577697e-06
6.753507014028057309e-01,2.512599578978555397e-06
6.832665330661323866e-01,2.734209328014963228e-06
6.911823647294590423e-01,2.972917471582471847e-06
6.990981963927856979e-01,3.229931126342570431e-06
7.070140280561123536e-01,3.506470956543359253e-06
7.149298597194390092e-01,3.803815125400855829e-06
7.228456913827657759e-01,4.123268570291182925e-06
7.307615230460922096e-01,4.466448840517853342e-06
7.386773547094189762e-01,4.834527359640265298e-06
7.465931863727456319e-01,5.229571419176952443e-06
7.545090180360722876e-01,5.652930176795274893e-06
7.624248496993990543e-01,6.106295276114073846e-06
7.703406813627254879e-01,6.591948618742312900e-06
7.782565130260522546e-01,7.111643710529317001e-06
7.861723446893789102e-01,7.667324297206743583e-06
7.940881763527055659e-01,8.261195490561888772e-06
8.020040080160323326e-01,8.895769140708405728e-06
8.099198396793588772e-01,9.573566095279298585e-06
8.178356713426853108e-01,1.029687310484580845e-05
8.257515030060120775e-01,1.106838563983932652e-05
8.336673346693387332e-01,1.189093487642195606e-05
8.415831663326653889e-01,1.276749412490461977e-05
8.494989979959921556e-01,1.370118488832328921e-05
8.574148296593185892e-01,1.469528818938384142e-05
8.653306613226453559e-01,1.575322847022709498e-05
8.732464929859720115e-01,1.687860459021778105e-05
8.811623246492986672e-01,1.807519725611068218e-05
8.890781563126254339e-01,1.934694198479702332e-05
8.969939879759518675e-01,2.069797299335659880e-05
9.049098196392786342e-01,2.213261066290534481e-05
9.128256513026052898e-01,2.365536142882478560e-05
9.207414829659319455e-01,2.527093528691302872e-05
9.286573146292587122e-01,2.698424871008132597e-05
9.365731462925851458e-01,2.880069307215426215e-05
9.444889779559119125e-01,3.072668702518744916e-05
9.524048096192385682e-01,3.276684477379099064e-05
9.603206412825652238e-01,3.492699656606668601e-05
9.682364729458919905e-01,3.721319138382860270e-05
9.761523046092184241e-01,3.963298669181648381e-05
9.840681362725451908e-01,4.219381793849257890e-05
9.919839679358718465e-01,4.490103625308787560e-05
9.998997995991985022e-01,4.776171233261089190e-05
1.007815631262525047e+00,5.078730431695625098e-05
1.015731462925851813e+00,5.398289037631804997e-05
1.023647294589178358e+00,5.735580142944423385e-05
1.031563126252505125e+00,6.092001095319053640e-05
1.039478957915831669e+00,6.468034524441011127e-05
1.047394789579158436e+00,6.864666145147600923e-05
1.055310621242485203e+00,7.283354059324821119e-05
1.063226452905811747e+00,7.724474706579816086e-05
1.071142284569138292e+00,8.189912992432056603e-05
1.079058116232465059e+00,8.680136456754939181e-05
1.086973947895791603e+00,9.196828003267900915e-05
1.094889779559118370e+00,9.740956349071531279e-05
1.102805611222444915e+00,1.031402274349119325e-04
1.110721442885771681e+00,1.091725715743199152e-04
1.118637274549098226e+00,1.155228556313604238e-04
1.126553106212424993e+00,1.222024676532043760e-04
1.134468937875751537e+00,1.292332580022031259e-04
1.142384769539078304e+00,1.366207578449883187e-04
1.150300601202404849e+00,1.443984230202223756e-04
1.158216432865731615e+00,1.525665912081400094e-04
1.166132264529058160e+00,1.611557429930938459e-04
1.174048096192384927e+00,1.701809916347678980e-04
1.181963927855711471e+00,1.796546228826209819e-04
1.189879759519038238e+00,1.896179129666804156e-04
1.197795591182364783e+00,2.000738988431800282e-04
1.205711422845691549e+00,2.110441265434883284e-04
1.213627254509018094e+00,2.225755580410053620e-04
1.221543086172344861e+00,2.346704784589700088e-04
1.229458917835671405e+00,2.473546210147610763e-04
1.237374749498998172e+00,2.606712917893816905e-04
1.245290581162324717e+00,2.746417623251493512e-04
1.253206412825651483e+00,2.892868441449620827e-04
1.261122244488978028e+00,3.046372796235719276e-04
1.269038076152304795e+00,3.207445177904712837e-04
1.276953907815631339e+00,3.376311375074513010e-04
1.284869739478958106e+00,3.553248198700519099e-04
1.292785571142284651e+00,3.738622053747761380e-04
1.300701402805611417e+00,3.932816358751305358e-04
1.308617234468937962e+00,4.136440552031024642e-04
1.316533066132264729e+00,4.349783380043061119e-04
1.324448897795591273e+00,4.573214899039700467e-04
1.332364729458918040e+00,4.807193952017211778e-04
1.340280561122244585e+00,5.052201133555389492e-04
1.348196392785571351e+00,5.308739879081330769e-04
1.356112224448897896e+00,5.577337325689297066e-04
1.364028056112224663e+00,5.858545983626540403e-04
1.371943887775551207e+00,6.153156129130991393e-04
1.379859719438877974e+00,6.461582232045691692e-04
1.387775551102204519e+00,6.784438950284841976e-04
1.395691382765531285e+00,7.122393186078985637e-04
1.403607214428857830e+00,7.476145186618651534e-04
1.411523046092184597e+00,7.846430370829839433e-04
1.419438877755511141e+00,8.234021455490464362e-04
1.427354709418837908e+00,8.639730187210010711e-04
1.435270541082164675e+00,9.064411036301255487e-04
1.443186372745491219e+00,9.508962002681887625e-04
1.451102204408817764e+00,9.974328903961493086e-04
1.459018036072144753e+00,1.046150659358588593e-03
1.466933867735471075e+00,1.097154260462945407e-03
1.474849699398797842e+00,1.150553952724013302e-03
1.482765531062124387e+00,1.206465705083648466e-03
1.490681362725451153e+00,1.265017077311611981e-03
1.498597194388777698e+00,1.326417947655700747e-03
1.506513026052104465e+00,1.390747621023421827e-03
1.514428857715430787e+00,1.458155383908057512e-03
1.522344689378757776e+00,1.528799297259582357e-03
1.530260521042084321e+00,1.602846060197810063e-03
1.538176352705411309e+00,1.680471186917755150e-03
1.546092184368737632e+00,1.761858572039209881e-03
1.554008016032064399e+00,1.847198618748388012e-03
1.561923847695390943e+00,1.937023828358392470e-03
1.569839679358717266e+00,2.031383653363847720e-03
1.577755511022044255e+00,2.130485649095506615e-03
1.585671342685370799e+00,2.234589354521591270e-03
1.593587174348697344e+00,2.343957560801072492e-03
1.601503006012024111e+00,2.459311605575097495e-03
1.609418837675350877e+00,2.581140558516542040e-03
1.617334669338677422e+00,2.709467900068975206e-03
1.625250501002004189e+00,2.844652167874747554e-03
1.633166332665330955e+00,2.987403178158410787e-03
1.641082164328657500e+00,3.139487647627316625e-03
1.648997995991983823e+00,3.300355706120254324e-03
1.656913827655310811e+00,3.470457997183354262e-03
1.664829659318637356e+00,3.652034715004795571e-03
1.672745490981963901e+00,3.846880005627402628e-03
1.680661322645290667e+00,4.054249429478942214e-03
1.688577154308617434e+00,4.275664938278343243e-03
1.696492985971943979e+00,4.518844227060669905e-03
1.704408817635270745e+00,4.780589623134931694e-03
1.712324649298597512e+00,5.062499252309198526e-03
1.720240480961924057e+00,5.384456545483850935e-03
1.728156312625250379e+00,5.739374367844094806e-03
1.736072144288577368e+00,6.135951455946111327e-03
1.743987975951903913e+00,6.637471410477474749e-03
1.751903807615230457e+00,7.241185186019311743e-03
1.759819639278557224e+00,8.086824211090191603e-03
1.767735470941883991e+00,1.334893107404987525e-02
1.775651302605210535e+00,1.164892158101089523e-02
1.783567134268537302e+00,1.195750270976567511e-02
1.791482965931864069e+00,1.218970713644942916e-02
1.799398797595190613e+00,1.232817804712844391e-02
1.807314629258516936e+00,1.242582617815300196e-02
1.815230460921843925e+00,1.253969879439684534e-02
1.823146292585170469e+00,1.264730973070924899e-02
1.831062124248497014e+00,1.275748611884568347e-02
1.838977955911823781e+00,1.286840206414473047e-02
1.846893787575150547e+00,1.297847914412678105e-02
1.854809619238477092e+00,1.309083662311200276e-02
1.862725450901803859e+00,1.320194782125378580e-02
1.870641282565130625e+00,1.331503924827070508e-02
1.878557114228457170e+00,1.342754213369842450e-02
1.886472945891783493e+00,1.354108586718159347e-02
1.894388777555110703e+00,1.365507316806579760e-02
1.902304609218437026e+00,1.376895936663899422e-02
1.910220440881763571e+00,1.388442613405941987e-02
1.918136272545090337e+00,1.399862047255872634e-02
1.926052104208417104e+00,1.411552332865851668e-02
1.933967935871743649e+00,1.423081103335603094e-02
1.941883767535070415e+00,1.434830733864900579e-02
1.949799599198397182e+00,1.446539109605575295e-02
1.957715430861723727e+00,1.458273395555021411e-02
1.965631262525050049e+00,1.470146071872396876e-02
1.973547094188377260e+00,1.481942897091173897e-02
1.981462925851703583e+00,1.493901068283558925e-02
1.989378757515030127e+00,1.505870380925470285e-02
1.997294589178356894e+00,1.517803297554038561e-02
2.005210420841683661e+00,1.529930717715469179e-02
2.013126252505009983e+00,1.542027864883275395e-02
2.021042084168336750e+00,1.554125087653992002e-02
2.028957915831663517e+00,1.566380360113471884e-02
2.036873747494990283e+00,1.578623303173624579e-02
2.044789579158316606e+00,1.590860594007902432e-02
2.052705410821643373e+00,1.603253115134149059e-02
2.060621242484970139e+00,1.615651671992258953e-02
2.068537074148296462e+00,1.628056295210121920e-02
2.076452905811623229e+00,1.640544036428451605e-02
2.084368737474949995e+00,1.653102910277566215e-02
2.092284569138276318e+00,1.665676607634212006e-02
2.100200400801603084e+00,1.678269137068456873e-02
2.108116232464929851e+00,1.690964337720001973e-02
2.116032064128256618e+00,1.703706413111009260e-02
2.123947895791582940e+00,1.716472990307050736e-02
2.131863727454909707e+00,1.729267056764305713e-02
2.139779559118236474e+00,1.742130033250360172e-02
2.147695390781563241e+00,1.755066959675668364e-02
2.155611222444889563e+00,1.768035070130715911e-02
2.163527054108216330e+00,1.781036530750842659e-02
2.171442885771543096e+00,1.794073440315405166e-02
2.179358717434869863e+00,1.807171093086529581e-02
2.187274549098196186e+00,1.820343457934939582e-02
2.195190380761522952e+00,1.833553152333989092e-02
2.203106212424849719e+00,1.846801660642149318e-02
2.211022044088176486e+00,1.860090405398582419e-02
2.218937875751502808e+00,1.873420711036436273e-02
2.226853707414829575e+00,1.886793799616904785e-02
2.234769539078156342e+00,1.900242055798162522e-02
2.242685370741483109e+00,1.913740232643615022e-02
2.250601202404809431e+00,1.927281327796361715e-02
2.258517034068136198e+00,1.940866195494109214e-02
2.266432865731462964e+00,1.954495620393929475e-02
2.274348697394789731e+00,1.968170312094022836e-02
2.282264529058116054e+00,1.981890908327420958e-02
2.290180360721442820e+00,1.995657980536641105e-02
2.298096192384769587e+00,2.009472018279710032e-02
2.306012024048096354e+00,2.023333459288880268e-02
2.313927855711422676e+00,2.037242665839203437e-02
2.321843687374749443e+00,2.051199950686902196e-02
2.329759519038076210e+00,2.065208495552228046e-02
2.337675350701402976e+00,2.079270088131968813e-02
2.345591182364729299e+00,2.093378243082848547e-02
2.353507014028056066e+00,2.107533101622494423e-02
2.361422845691382832e+00,2.121734751599804389e-02
2.369338677354709599e+00,2.135983240268798586e-02
2.377254509018035922e+00,2.150278585564989117e-02
2.385170340681362688e+00,2.164620733911376896e-02
2.393086172344689455e+00,2.179009617773113028e-02
2.401002004008016222e+00,2.193447524663932890e-02
2.408917835671342544e+00,2.207939491602723542e-02
2.416833667334669311e+00,2.222479457337463160e-02
2.424749498997996078e+00,2.237067156133112564e-02
2.432665330661322844e+00,2.251702286970492725e-02
2.440581162324649167e+00,2.266384514198946029e-02
2.448496993987975934e+00,2.281113468137040828e-02
2.456412825651302700e+00,2.295888745660973687e-02
2.464328657314629467e+00,2.310709915822859589e-02
2.472244488977955790e+00,2.325576538770208687e-02
2.480160320641282556e+00,2.340488093450280790e-02
2.488076152304609323e+00,2.355444080930754053e-02
2.495991983967936090e+00,2.370443966648331374e-02
2.503907815631262412e+00,2.385508497550743040e-02
2.511823647294589179e+00,2.400626876144160496e-02
2.519739478957915946e+00,2.415788701590694879e-02
2.527655310621242712e+00,2.430993252792490109e-02
2.535571142284569035e+00,2.446239830204954141e-02
2.543486973947895802e+00,2.461527722402134105e-02
2.551402805611222568e+00,2.476856168351454501e-02
2.559318637274549335e+00,2.492266625565969437e-02
2.567234468937875658e+00,2.507717744980973718e-02
2.575150300601202424e+00,2.523208162418304895e-02
2.583066132264529191e+00,2.538736985650234465e-02
2.590981963927855514e+00,2.554303322209476590e-02
2.598897795591182280e+00,2.569946627041499315e-02
2.606813627254509047e+00,2.585637557932351713e-02
2.614729458917835814e+00,2.601364214506633049e-02
2.622645290581162136e+00,2.617125555566816517e-02
2.630561122244488903e+00,2.632942450106444052e-02
2.638476953907815670e+00,2.648829454131047464e-02
2.646392785571142436e+00,2.664748956580342137e-02
2.654308617234468759e+00,2.680699783123415350e-02
2.662224448897795526e+00,2.696711649240157715e-02
2.670140280561122292e+00,2.712787895927656900e-02
2.678056112224449059e+00,2.728892845797421113e-02
2.685971943887775382e+00,2.745025361121115198e-02
2.693887775551102148e+00,2.761251073700789899e-02
2.701803607214428915e+00,2.777507464119718245e-02
2.709719438877755682e+00,2.793788270810496077e-02
2.717635270541082004e+00,2.810144401204930226e-02
2.725551102204408771e+00,2.826548308360635892e-02
2.733466933867735538e+00,2.842973442894806274e-02
2.741382765531062304e+00,2.859470730893850371e-02
2.749298597194388627e+00,2.876017439745167867e-02
2.757214428857715394e+00,2.892581672388590264e-02
2.765130260521042160e+00,2.909230133875537541e-02
2.773046092184368927e+00,2.925913729500626698e-02
2.780961923847695250e+00,2.942616926161294513e-02
2.788877755511022016e+00,2.959419657944455107e-02
2.796793587174348783e+00,2.976233318133595512e-02
2.804709418837675550e+00,2.993103934037299671e-02
2.812625250501001872e+00,3.010033257033806892e-02
2.820541082164328639e+00,3.026970931968443745e-02
2.828456913827655406e+00,3.044014810426388246e-02
2.836372745490982172e+00,3.061062133187255480e-02
2.844288577154308495e+00,3.078181263225296393e-02
2.852204408817635262e+00,3.095338477345933870e-02
2.860120240480962028e+00,3.112535564402234972e-02
2.868036072144288795e+00,3.129800660089770981e-02
2.875951903807615562e+00,3.147080136426871899e-02
2.883867735470942328e+00,3.164450754898628232e-02
2.891783567134268651e+00,3.181816852098062059e-02
2.899699398797595418e+00,3.199290285112150328e-02
2.907615230460921740e+00,3.216751400422846602e-02
2.915531062124248063e+00,3.234320201798429606e-02
2.923446893787575718e+00,3.251877229120339607e-02
2.931362725450902040e+00,3.269541065482752668e-02
2.939278557114228363e+00,3.287190426808419413e-02
2.947194388777555130e+00,3.304952577239302774e-02
2.955110220440881452e+00,3.322703205700532070e-02
2.963026052104208219e+00,3.340553804645062658e-02
2.970941883767534986e+00,3.358409071927129924e-02
2.978857715430861752e+00,3.376343749119749965e-02
2.986773547094188519e+00,3.394306268818542832e-02
2.994689378757515286e+00,3.412319865584990258e-02
3.002605210420841608e+00,3.430392514170906709e-02
3.010521042084168375e+00,3.448479898828676199e-02
3.018436873747495142e+00,3.466664635147517076e-02
3.026352705410821908e+00,3.484850829175890896e-02
3.034268537074148675e+00,3.503119346355226815e-02
3.042184368737475442e+00,3.521422361167825255e-02
3.050100200400801764e+00,3.539751939019225579e-02
3.058016032064128531e+00,3.558173563041320403e-02
3.065931863727454854e+00,3.576603084878755834e-02
3.073847695390781176e+00,3.595099025498003226e-02
3.081763527054108831e+00,3.613650924212215287e-02
3.089679358717434710e+00,3.632214125465879628e-02
3.097595190380761476e+00,3.650867633804549817e-02
3.105511022044088243e+00,3.669556519213790918e-02
3.113426853707414566e+00,3.688260289891927973e-02
3.121342685370741332e+00,3.707060843610709977e-02
3.129258517034068099e+00,3.725892928915884583e-02
3.137174348697394866e+00,3.744743127817710265e-02
3.145090180360721632e+00,3.763678911102730229e-02
3.153006012024048399e+00,3.782659262449823701e-02
3.160921843687374722e+00,3.801661402146958024e-02
3.168837675350701488e+00,3.820718502455605625e-02
3.176753507014028255e+00,3.839851870801312683e-02
3.184669338677354133e+00,3.859009892551076154e-02
3.192585170340680900e+00,3.878193281693367855e-02
3.200501002004008555e+00,3.897462959079747713e-02
