# q/kF, int w**0 * S(q; w) dw
1.000000000000000194e-02,1.692480163251108457e-07
2.000000000000000389e-02,2.346827840608584177e-06
2.999999999999999889e-02,1.003087197402435998e-05
4.000000000000000777e-02,2.655799953752867985e-05
5.000000000000000278e-02,5.691141077618227937e-05
6.000000000000000472e-02,1.141086649694351328e-04
6.999999999999999278e-02,2.369033552127798223e-04
8.000000000000001554e-02,5.451434802353334825e-04
8.999999999999999667e-02,1.299960697653072209e-03
9.999999999999997780e-02,2.022820031959496941e-03
1.100000000000000006e-01,1.828555336483934620e-03
1.199999999999999956e-01,1.683042189288101731e-03
1.300000000000000044e-01,1.891918107062114411e-03
1.400000000000000133e-01,2.406144843534982567e-03
1.500000000000000222e-01,2.978543029540714655e-03
1.600000000000000311e-01,3.368599887140474262e-03
1.700000000000000122e-01,3.704744808472727833e-03
1.800000000000000211e-01,4.138842366066781270e-03
1.900000000000000022e-01,4.642082213845057613e-03
2.000000000000000111e-01,5.154919146263151758e-03
2.100000000000000200e-01,5.680342601115511217e-03
2.200000000000000011e-01,6.235507953598151340e-03
2.300000000000000377e-01,6.820245737761942637e-03
2.400000000000000189e-01,7.431103680211493569e-03
2.500000000000000000e-01,8.068218275650835755e-03
2.600000000000000089e-01,8.732235239881064315e-03
2.700000000000000178e-01,9.423242676838035348e-03
2.800000000000000266e-01,1.014127483220299449e-02
2.900000000000000355e-01,1.088643467886653109e-02
2.999999999999999889e-01,1.165883204840209922e-02
3.099999999999999978e-01,1.245857005491068752e-02
3.200000000000000622e-01,1.328574930055725738e-02
3.300000000000000155e-01,1.414046735603760943e-02
3.400000000000000244e-01,1.502281700948113197e-02
3.500000000000000888e-01,1.593288563875994157e-02
3.600000000000000422e-01,1.687075406815877199e-02
3.699999999999999956e-01,1.783649735172896864e-02
3.800000000000000044e-01,1.883018535546477495e-02
3.900000000000000133e-01,1.985188424321168016e-02
4.000000000000000222e-01,2.090165848882622607e-02
4.100000000000000311e-01,2.197957340650963376e-02
4.200000000000000400e-01,2.308569808114347213e-02
4.299999999999999378e-01,2.422010693977954751e-02
4.400000000000000022e-01,2.538288411494470792e-02
4.500000000000000111e-01,2.657412323342634927e-02
4.600000000000000755e-01,2.779393039211169869e-02
4.700000000000000289e-01,2.904242470959293027e-02
4.800000000000000377e-01,3.031973857291431554e-02
4.899999999999999911e-01,3.162601701560367046e-02
5.000000000000000000e-01,3.296141729315880953e-02
5.100000000000000089e-01,3.432610721179194663e-02
5.200000000000000178e-01,3.572026396237946294e-02
5.300000000000000266e-01,3.714407236995185407e-02
5.400000000000000355e-01,3.859772460616816420e-02
5.500000000000000444e-01,4.008141597353501867e-02
5.600000000000000533e-01,4.159534475052385771e-02
5.700000000000000622e-01,4.313971302335536245e-02
5.800000000000000711e-01,4.471472100980854181e-02
5.899999999999999689e-01,4.632056989627004323e-02
5.999999999999999778e-01,4.795746203102285027e-02
6.099999999999998757e-01,4.962559429720587306e-02
6.199999999999999956e-01,5.132516483185418227e-02
6.300000000000000044e-01,5.305636997634326224e-02
6.400000000000001243e-01,5.481940553263259241e-02
6.500000000000000222e-01,5.661446277761904289e-02
6.600000000000000311e-01,5.844173335767295641e-02
6.700000000000001510e-01,6.030140785245518414e-02
6.800000000000000488e-01,6.219367606118329089e-02
6.900000000000000577e-01,6.411872737100844655e-02
7.000000000000001776e-01,6.607675322144272723e-02
7.100000000000000755e-01,6.806794378266164958e-02
7.199999999999999734e-01,7.009248819742291969e-02
7.299999999999999822e-01,7.215057766325813637e-02
7.399999999999999911e-01,7.424240595976391854e-02
7.500000000000000000e-01,7.636817744047737222e-02
7.600000000000000089e-01,7.852807991470683868e-02
7.700000000000000178e-01,8.072231548772827725e-02
7.800000000000000266e-01,8.295109674590113447e-02
7.900000000000000355e-01,8.521461566380861274e-02
8.000000000000000444e-01,8.751310057714251078e-02
8.100000000000000533e-01,8.984674582282024813e-02
8.200000000000000622e-01,9.221578969781304980e-02
8.300000000000000711e-01,9.462043188883800804e-02
8.400000000000000799e-01,9.706092182960580905e-02
8.499999999999999778e-01,9.953747283612740526e-02
8.599999999999998757e-01,1.020503210639055053e-01
8.699999999999999956e-01,1.045997234537827669e-01
8.800000000000000044e-01,1.071859064747284762e-01
8.900000000000001243e-01,1.098091201326058391e-01
9.000000000000000222e-01,1.124696390716055788e-01
9.100000000000000311e-01,1.151677137019476854e-01
9.200000000000001510e-01,1.179036059131430558e-01
9.300000000000000488e-01,1.206775891636825970e-01
9.400000000000000577e-01,1.234899413454541156e-01
9.500000000000001776e-01,1.263409541054967833e-01
9.600000000000000755e-01,1.292309235274244350e-01
9.699999999999999734e-01,1.321601367390493331e-01
9.799999999999999822e-01,1.351288968809412627e-01
9.899999999999999911e-01,1.381375142661843969e-01
1.000000000000000000e+00,1.411863051382346856e-01
1.010000000000000009e+00,1.442755920345206722e-01
1.020000000000000018e+00,1.474057041283502456e-01
1.030000000000000027e+00,1.505769767982269303e-01
1.040000000000000036e+00,1.537897513276569039e-01
1.050000000000000044e+00,1.570443763477462618e-01
1.060000000000000053e+00,1.603412184254573991e-01
1.070000000000000062e+00,1.636806501465573049e-01
1.080000000000000071e+00,1.670630200988990066e-01
1.090000000000000080e+00,1.704887048256946980e-01
1.100000000000000089e+00,1.739580823982577185e-01
1.110000000000000098e+00,1.774715414981524464e-01
1.120000000000000107e+00,1.810295073989046655e-01
1.130000000000000115e+00,1.846324003552732018e-01
1.140000000000000124e+00,1.882805776844350132e-01
1.150000000000000355e+00,1.919744504540695784e-01
1.160000000000000142e+00,1.957145056784995174e-01
1.169999999999999929e+00,1.995011732690095685e-01
1.179999999999999938e+00,2.033348151586858166e-01
1.189999999999999947e+00,2.072159287929818128e-01
1.199999999999999956e+00,2.111450338187850773e-01
1.209999999999999964e+00,2.151224445004426278e-01
1.219999999999999751e+00,2.191487600827315974e-01
1.229999999999999982e+00,2.232244149393224075e-01
1.239999999999999991e+00,2.273497763492436374e-01
1.250000000000000000e+00,2.315256212466035857e-01
1.260000000000000009e+00,2.357521002144394862e-01
1.270000000000000018e+00,2.400300260128459540e-01
1.280000000000000249e+00,2.443596511790093739e-01
1.290000000000000036e+00,2.487417121239590412e-01
1.300000000000000044e+00,2.531765424886783800e-01
1.310000000000000053e+00,2.576648732506798822e-01
1.320000000000000062e+00,2.622070176882769221e-01
1.330000000000000071e+00,2.668038235926437074e-01
1.340000000000000302e+00,2.714554315631982351e-01
1.350000000000000089e+00,2.761629810903630244e-01
1.360000000000000098e+00,2.809264420925701167e-01
1.370000000000000107e+00,2.857468732801367040e-01
1.380000000000000115e+00,2.906246247837434571e-01
1.390000000000000124e+00,2.955601374827501737e-01
1.400000000000000355e+00,3.005546248058784675e-01
1.410000000000000142e+00,3.056080423863294371e-01
1.419999999999999929e+00,3.107212413903347459e-01
1.429999999999999938e+00,3.158952402321921760e-01
1.439999999999999947e+00,3.211300927881671763e-01
1.449999999999999956e+00,3.264265843852749982e-01
1.459999999999999964e+00,3.317860606802178758e-01
1.469999999999999751e+00,3.372084536430337010e-01
1.479999999999999982e+00,3.426944161406078604e-01
1.489999999999999991e+00,3.482452664808144416e-01
1.500000000000000000e+00,3.538616741301934820e-01
1.510000000000000009e+00,3.595439298855658272e-01
1.520000000000000018e+00,3.652927667321599348e-01
1.530000000000000249e+00,3.711092679386038817e-01
1.540000000000000036e+00,3.769949010815245027e-01
1.550000000000000044e+00,3.829496840366748422e-01
1.560000000000000053e+00,3.889744621915868228e-01
1.570000000000000062e+00,3.950701213284525948e-01
1.580000000000000071e+00,4.012375717868742475e-01
1.590000000000000302e+00,4.074785736146694370e-01
1.600000000000000089e+00,4.137940671310884055e-01
1.610000000000000098e+00,4.201845911534128897e-01
1.620000000000000107e+00,4.266512694636893643e-01
1.630000000000000115e+00,4.331952964522332028e-01
1.640000000000000124e+00,4.398179442841725906e-01
1.650000000000000355e+00,4.465205656100962317e-01
1.660000000000000142e+00,4.533046087089236953e-01
1.670000000000000151e+00,4.601716282619333631e-01
1.679999999999999938e+00,4.671232986213463279e-01
1.689999999999999947e+00,4.741614402392446692e-01
1.699999999999999956e+00,4.812880295285721921e-01
1.709999999999999964e+00,4.885053622309496468e-01
1.719999999999999751e+00,4.958159990221460145e-01
1.729999999999999982e+00,5.032220485872144211e-01
1.739999999999999991e+00,5.107263313616599021e-01
1.750000000000000000e+00,5.183324328209826248e-01
1.760000000000000009e+00,5.260444086830033950e-01
1.770000000000000018e+00,5.338659581713958158e-01
1.780000000000000249e+00,5.418017170344677780e-01
1.790000000000000036e+00,5.498569356007699804e-01
1.800000000000000044e+00,5.580375900988281401e-01
1.810000000000000053e+00,5.663505139236935104e-01
1.820000000000000062e+00,5.748035226286032362e-01
1.830000000000000071e+00,5.834055448401535005e-01
1.840000000000000302e+00,5.921667746009969813e-01
1.850000000000000089e+00,6.010987543293119240e-01
1.860000000000000098e+00,6.102140351549035779e-01
1.870000000000000107e+00,6.195276050343700991e-01
1.880000000000000115e+00,6.291035010809659100e-01
1.890000000000000124e+00,6.389630829285146696e-01
1.900000000000000355e+00,6.491240457933435959e-01
1.910000000000000142e+00,6.596179032502780260e-01
1.920000000000000151e+00,6.704408283152445414e-01
1.929999999999999938e+00,6.813919435310158423e-01
1.939999999999999947e+00,6.941913782859325810e-01
1.949999999999999956e+00,7.062269522890577411e-01
1.959999999999999964e+00,7.207194771196778760e-01
1.969999999999999751e+00,7.353031367530928897e-01
1.979999999999999982e+00,7.510009888248949661e-01
1.989999999999999991e+00,7.677441544025319642e-01
2.000000000000000000e+00,7.784895181752873317e-01
2.009999999999999787e+00,7.861372534304444937e-01
2.020000000000000018e+00,7.984256963815090646e-01
2.029999999999999805e+00,8.137492050495629403e-01
2.040000000000000036e+00,8.335635157371181769e-01
2.049999999999999822e+00,8.655991061282929389e-01
2.059999999999999609e+00,8.898096760894238511e-01
2.069999999999999840e+00,8.626394291028176564e-01
2.079999999999999627e+00,8.564013859750678748e-01
2.089999999999999858e+00,8.555124832894909215e-01
2.099999999999999645e+00,8.572680921580138058e-01
2.109999999999999876e+00,8.606247478837460996e-01
2.119999999999999662e+00,8.651229970780986989e-01
2.129999999999999893e+00,8.705963466459603062e-01
2.139999999999999680e+00,8.769265332376808830e-01
2.149999999999999911e+00,8.841250878860923423e-01
2.159999999999999698e+00,8.923743785979064702e-01
2.169999999999999929e+00,9.019350716176744998e-01
2.179999999999999716e+00,9.134912405483556208e-01
2.189999999999999947e+00,9.287223193650583353e-01
2.199999999999999734e+00,9.537919095327226371e-01
2.209999999999999964e+00,9.899097895595462271e-01
2.219999999999999751e+00,9.494686452829853573e-01
2.229999999999999982e+00,9.378051441787509379e-01
2.239999999999999769e+00,9.320507935262136723e-01
2.250000000000000444e+00,9.289319188750677636e-01
2.259999999999999787e+00,9.273366834129709302e-01
2.270000000000000018e+00,9.266979105364779867e-01
2.279999999999999805e+00,9.267454824320643381e-01
2.290000000000000036e+00,9.272741315026097331e-01
2.299999999999999822e+00,9.281802824757697801e-01
2.310000000000000053e+00,9.293667557056035644e-01
2.319999999999999396e+00,9.307822306019787328e-01
2.329999999999999627e+00,9.323724818522574065e-01
2.339999999999999858e+00,9.341090123043179760e-01
2.349999999999999645e+00,9.359566038313349434e-01
2.359999999999999876e+00,9.379004005105804342e-01
2.369999999999999662e+00,9.399125265727126255e-01
2.379999999999999893e+00,9.419890900022718228e-01
2.389999999999999236e+00,9.441029897869617216e-01
2.399999999999999911e+00,9.462608620587923403e-01
2.409999999999999698e+00,9.484346590136644162e-01
2.419999999999999929e+00,9.506342453760572297e-01
2.429999999999999716e+00,9.528383041039906187e-01
2.439999999999999503e+00,9.550490952445753745e-01
2.449999999999999734e+00,9.572596495949645679e-01
2.459999999999999964e+00,9.594601217255389614e-01
2.469999999999999751e+00,9.616589253378273749e-01
2.479999999999999982e+00,9.638385068450872062e-01
2.489999999999999769e+00,9.660056357447173170e-01
2.500000000000000000e+00,9.681542049390170490e-01
2.509999999999999343e+00,9.702764598962414500e-01
2.520000000000000018e+00,9.723839160169908125e-01
2.529999999999999805e+00,9.744618548134715841e-01
2.540000000000000036e+00,9.765111934951945516e-01
2.549999999999999822e+00,9.785384104986620812e-01
2.560000000000000497e+00,9.805321973977367822e-01
2.569999999999999840e+00,9.824947554790655069e-01
2.579999999999999183e+00,9.844310651875177731e-01
2.589999999999999858e+00,9.863318123424069661e-01
2.599999999999999645e+00,9.881979147396268148e-01
2.609999999999999876e+00,9.900369799049283381e-01
2.619999999999999662e+00,9.918393773090447008e-01
2.629999999999999449e+00,9.936051174751688864e-01
2.639999999999999680e+00,9.953408816016646732e-01
2.649999999999999911e+00,9.970422568472502300e-01
2.659999999999999698e+00,9.987067961352364964e-01
2.669999999999999929e+00,1.000335047852396908e+00
2.679999999999999716e+00,1.001934510654878263e+00
2.689999999999999947e+00,1.003497468653331337e+00
2.699999999999999289e+00,1.005024349236929293e+00
2.709999999999999964e+00,1.006515496895159067e+00
2.719999999999999751e+00,1.007977916191463930e+00
2.729999999999999982e+00,1.009405131677174827e+00
2.739999999999999769e+00,1.010797367275457326e+00
2.749999999999999556e+00,1.012155497548050231e+00
2.759999999999999787e+00,1.013481603978558576e+00
2.770000000000000018e+00,1.014777780313504740e+00
2.779999999999999805e+00,1.016041021125648758e+00
2.790000000000000036e+00,1.017271259958682617e+00
2.799999999999999822e+00,1.018469691334767280e+00
2.810000000000000053e+00,1.019636196053973043e+00
2.819999999999999396e+00,1.020776099592231700e+00
2.829999999999999627e+00,1.021885446966898980e+00
2.839999999999999858e+00,1.022965028039432900e+00
2.849999999999999645e+00,1.024014815341162121e+00
2.859999999999999876e+00,1.025035488722065846e+00
2.869999999999999662e+00,1.026028043942656343e+00
2.879999999999999893e+00,1.026992545755489816e+00
2.889999999999999236e+00,1.027932212589877325e+00
2.899999999999999911e+00,1.028845913668111400e+00
2.909999999999999698e+00,1.029733242970309881e+00
2.919999999999999929e+00,1.030594701914786304e+00
2.929999999999999716e+00,1.031430882751019462e+00
2.939999999999999503e+00,1.032242371953758564e+00
2.949999999999999734e+00,1.033029867143257174e+00
2.959999999999999964e+00,1.033793977578358225e+00
2.969999999999999751e+00,1.034535069434340482e+00
2.979999999999999982e+00,1.035253691809895571e+00
2.989999999999999769e+00,1.035950384787887035e+00
3.000000000000000000e+00,1.036625677944116752e+00
3.009999999999999343e+00,1.037280089627769852e+00
3.020000000000000018e+00,1.037914448600590012e+00
3.029999999999999805e+00,1.038529290400296512e+00
3.040000000000000036e+00,1.039124556216354467e+00
3.049999999999999822e+00,1.039700716137213377e+00
3.060000000000000497e+00,1.040258349077902489e+00
3.069999999999999840e+00,1.040798066877316908e+00
3.080000000000000071e+00,1.041320073348061426e+00
3.089999999999999858e+00,1.041824783852443481e+00
3.099999999999999645e+00,1.042312598144688796e+00
3.109999999999999876e+00,1.042783901333799390e+00
3.119999999999999662e+00,1.043239972682278749e+00
3.129999999999999449e+00,1.043681235479052782e+00
3.139999999999999680e+00,1.044107299051657112e+00
3.149999999999999911e+00,1.044518490077296136e+00
3.159999999999999698e+00,1.044915623009783578e+00
3.169999999999999929e+00,1.045299142303401707e+00
3.179999999999999716e+00,1.045668752017015590e+00
3.189999999999999947e+00,1.046025095645715108e+00
3.199999999999999289e+00,1.046369068997661689e+00
3.209999999999999964e+00,1.046699960430620857e+00
3.219999999999999751e+00,1.047018816609908809e+00
3.229999999999999982e+00,1.047325840477377534e+00
3.239999999999999769e+00,1.047620536281037129e+00
3.250000000000000444e+00,1.047905274106243345e+00
3.259999999999999787e+00,1.048180802335459960e+00
3.270000000000000018e+00,1.048446203027309842e+00
3.279999999999999805e+00,1.048700642462822241e+00
3.290000000000000036e+00,1.048945144735164536e+00
3.299999999999999822e+00,1.049179295296289061e+00
3.310000000000000053e+00,1.049403889020110059e+00
3.319999999999999396e+00,1.049618430482474940e+00
3.330000000000000071e+00,1.049828343477773540e+00
3.339999999999999858e+00,1.050028512247768386e+00
3.349999999999999645e+00,1.050220706514608304e+00
3.359999999999999876e+00,1.050403220682406102e+00
3.369999999999999662e+00,1.050577699078022231e+00
3.379999999999999893e+00,1.050745482113714546e+00
3.389999999999999236e+00,1.050907863410843968e+00
3.399999999999999911e+00,1.051063025656729044e+00
3.409999999999999698e+00,1.051209509506010331e+00
3.419999999999999929e+00,1.051348058214768955e+00
3.429999999999999716e+00,1.051483414493928681e+00
3.439999999999999503e+00,1.051612802532095881e+00
3.449999999999999734e+00,1.051734505225649263e+00
3.459999999999999964e+00,1.051849549276046680e+00
3.469999999999999751e+00,1.051959974429824252e+00
3.479999999999999982e+00,1.052066507590988076e+00
3.489999999999999769e+00,1.052166388103413119e+00
3.500000000000000000e+00,1.052259317395729532e+00
3.509999999999999343e+00,1.052349956292731203e+00
3.520000000000000018e+00,1.052435884932631183e+00
3.529999999999999805e+00,1.052514966495333715e+00
3.540000000000000036e+00,1.052589121499372560e+00
3.549999999999999822e+00,1.052663054417183108e+00
3.560000000000000497e+00,1.052729958015083733e+00
3.569999999999999840e+00,1.052789796214520734e+00
3.580000000000000071e+00,1.052850832980920304e+00
3.589999999999999858e+00,1.052906283311336288e+00
3.599999999999999645e+00,1.052955069090088625e+00
3.609999999999999876e+00,1.053004984645394160e+00
3.619999999999999662e+00,1.053049428857342651e+00
3.629999999999999449e+00,1.053086873505807430e+00
3.639999999999999680e+00,1.053126933103021301e+00
3.649999999999999911e+00,1.053160580747166675e+00
3.659999999999999698e+00,1.053189129741564756e+00
3.669999999999999929e+00,1.053219366376412447e+00
3.679999999999999716e+00,1.053242536063560442e+00
3.689999999999999947e+00,1.053264587836821642e+00
3.699999999999999289e+00,1.053284645989021273e+00
3.709999999999999964e+00,1.053297509704137269e+00
3.719999999999999751e+00,1.053314766025409188e+00
3.729999999999999982e+00,1.053324583559316574e+00
3.739999999999999769e+00,1.053333668498013909e+00
3.749999999999999556e+00,1.053340581820376043e+00
3.759999999999999787e+00,1.053342417513650098e+00
3.770000000000000018e+00,1.053346644810466248e+00
3.779999999999999805e+00,1.053342949070270151e+00
3.790000000000000036e+00,1.053343390928395351e+00
3.799999999999999822e+00,1.053336745150402098e+00
3.810000000000000053e+00,1.053331444377895831e+00
3.819999999999999396e+00,1.053321764050718867e+00
3.830000000000000071e+00,1.053311311326400546e+00
3.839999999999999858e+00,1.053298450029374056e+00
3.849999999999999645e+00,1.053283380353791543e+00
3.859999999999999876e+00,1.053267128687859877e+00
3.869999999999999662e+00,1.053247922820387705e+00
3.879999999999999893e+00,1.053228703217500728e+00
3.889999999999999236e+00,1.053206966455945359e+00
3.899999999999999911e+00,1.053184316160143963e+00
3.909999999999999698e+00,1.053159422887145702e+00
3.919999999999999929e+00,1.053132546644464762e+00
3.929999999999999716e+00,1.053104823356760145e+00
3.939999999999999503e+00,1.053074048615465941e+00
3.949999999999999734e+00,1.053045437524363193e+00
3.959999999999999964e+00,1.053010398944788983e+00
3.969999999999999751e+00,1.052979649210050717e+00
3.979999999999999982e+00,1.052940988202873962e+00
3.989999999999999769e+00,1.052907731747840359e+00
