# q/kF, int w**2 * S(q; w) dw
1.000000000000000194e-02,1.228624547020667638e-10
2.000000000000000389e-02,4.595330297848991454e-10
2.999999999999999889e-02,1.017361721402104123e-09
4.000000000000000777e-02,1.780263045933169571e-09
5.000000000000000278e-02,2.755800000045471707e-09
6.000000000000000472e-02,3.983654360405540158e-09
6.999999999999999278e-02,5.528166601733879855e-09
8.000000000000001554e-02,7.432997363547790987e-09
8.999999999999999667e-02,9.636683548128903965e-09
9.999999999999997780e-02,1.195515486464711945e-08
1.100000000000000006e-01,1.426431133102911594e-08
1.199999999999999956e-01,1.670196188342852404e-08
1.300000000000000044e-01,1.954128748888253713e-08
1.400000000000000133e-01,2.284420091741944974e-08
1.500000000000000222e-01,2.635461236339047065e-08
1.600000000000000311e-01,2.988948716501787044e-08
1.700000000000000122e-01,3.363015076667412311e-08
1.800000000000000211e-01,3.773930374419128101e-08
1.900000000000000022e-01,4.208160498531959789e-08
2.000000000000000111e-01,4.657262002932400353e-08
2.100000000000000200e-01,5.131678470134128798e-08
2.200000000000000011e-01,5.631564187385660221e-08
2.300000000000000377e-01,6.151571276233096998e-08
2.400000000000000189e-01,6.694719060869779264e-08
2.500000000000000000e-01,7.261022659925818025e-08
2.600000000000000089e-01,7.849182512979437847e-08
2.700000000000000178e-01,8.460068491787229407e-08
2.800000000000000266e-01,9.093199187866084352e-08
2.900000000000000355e-01,9.748565816655910992e-08
2.999999999999999889e-01,1.042612114343541617e-07
3.099999999999999978e-01,1.112572389561837748e-07
3.200000000000000622e-01,1.184731536560703923e-07
3.300000000000000155e-01,1.259077853266330362e-07
3.400000000000000244e-01,1.335602174459784697e-07
3.500000000000000888e-01,1.414293543134530942e-07
3.600000000000000422e-01,1.495141243382894721e-07
3.699999999999999956e-01,1.578133908070155609e-07
3.800000000000000044e-01,1.663259858767894811e-07
3.900000000000000133e-01,1.750506992505547714e-07
4.000000000000000222e-01,1.839862786492883079e-07
4.100000000000000311e-01,1.931314309959038404e-07
4.200000000000000400e-01,2.024848202452737012e-07
4.299999999999999378e-01,2.120450675182229582e-07
4.400000000000000022e-01,2.218107497059258770e-07
4.500000000000000111e-01,2.317803999385250453e-07
4.600000000000000755e-01,2.419525062660829107e-07
4.700000000000000289e-01,2.523255111358268735e-07
4.800000000000000377e-01,2.628978107379379640e-07
4.899999999999999911e-01,2.736677546483232995e-07
5.000000000000000000e-01,2.846336449463880180e-07
5.100000000000000089e-01,2.957937357880171705e-07
5.200000000000000178e-01,3.071462327173564753e-07
5.300000000000000266e-01,3.186892920575504653e-07
5.400000000000000355e-01,3.304210204340301222e-07
5.500000000000000444e-01,3.423394741057920110e-07
5.600000000000000533e-01,3.544426584696871772e-07
5.700000000000000622e-01,3.667285274913963764e-07
5.800000000000000711e-01,3.791949830651131891e-07
5.899999999999999689e-01,3.918398747504605633e-07
5.999999999999999778e-01,4.046609989759523600e-07
6.099999999999998757e-01,4.176560986400392999e-07
6.199999999999999956e-01,4.308228627720129281e-07
6.300000000000000044e-01,4.441589259663007908e-07
6.400000000000001243e-01,4.576618678352153350e-07
6.500000000000000222e-01,4.713292128208521907e-07
6.600000000000000311e-01,4.851584296533001044e-07
6.700000000000001510e-01,4.991469309764357591e-07
6.800000000000000488e-01,5.132920731945778293e-07
6.900000000000000577e-01,5.275911558656629430e-07
7.000000000000001776e-01,5.420414216399283837e-07
7.100000000000000755e-01,5.566400559257256179e-07
7.199999999999999734e-01,5.713841866571531110e-07
7.299999999999999822e-01,5.862708841164631643e-07
7.399999999999999911e-01,6.012971607882644637e-07
7.500000000000000000e-01,6.164599712195117678e-07
7.600000000000000089e-01,6.317562119611082811e-07
7.700000000000000178e-01,6.471827214733329424e-07
7.800000000000000266e-01,6.627362802459571087e-07
7.900000000000000355e-01,6.784136106680558027e-07
8.000000000000000444e-01,6.942113772936195634e-07
8.100000000000000533e-01,7.101261868403444594e-07
8.200000000000000622e-01,7.261545885234756199e-07
8.300000000000000711e-01,7.422930740949637676e-07
8.400000000000000799e-01,7.585380783525975591e-07
8.499999999999999778e-01,7.748859793448160462e-07
8.599999999999998757e-01,7.913330988702828842e-07
8.699999999999999956e-01,8.078757028639957134e-07
8.800000000000000044e-01,8.245100020020649306e-07
8.900000000000001243e-01,8.412321522745943641e-07
9.000000000000000222e-01,8.580382556568448763e-07
9.100000000000000311e-01,8.749243608313960198e-07
9.200000000000001510e-01,8.918864640089833260e-07
9.300000000000000488e-01,9.089205098327524571e-07
9.400000000000000577e-01,9.260223923394401135e-07
9.500000000000001776e-01,9.431879560056076369e-07
9.600000000000000755e-01,9.604129968296527550e-07
9.699999999999999734e-01,9.776932636348010004e-07
9.799999999999999822e-01,9.950244592794722749e-07
9.899999999999999911e-01,1.012402242115336790e-06
1.000000000000000000e+00,1.029822227471960748e-06
1.010000000000000009e+00,1.047279989213070984e-06
1.020000000000000018e+00,1.064771061463534448e-06
1.030000000000000027e+00,1.082290940352280322e-06
1.040000000000000036e+00,1.099835085945946853e-06
1.050000000000000044e+00,1.117398924225434644e-06
1.060000000000000053e+00,1.134977849238592183e-06
1.070000000000000062e+00,1.152567225292992927e-06
1.080000000000000071e+00,1.170162389248788480e-06
1.090000000000000080e+00,1.187758652865792209e-06
1.100000000000000089e+00,1.205351305415573210e-06
1.110000000000000098e+00,1.222935616701550588e-06
1.120000000000000107e+00,1.240506840117156152e-06
1.130000000000000115e+00,1.258060214951074387e-06
1.140000000000000124e+00,1.275590968433520959e-06
1.150000000000000355e+00,1.293094320361367861e-06
1.160000000000000142e+00,1.310565488572929651e-06
1.169999999999999929e+00,1.327999688713596207e-06
1.179999999999999938e+00,1.345392135602774713e-06
1.189999999999999947e+00,1.362738056069352385e-06
1.199999999999999956e+00,1.380032687305700341e-06
1.209999999999999964e+00,1.397271271839366898e-06
1.219999999999999751e+00,1.414449084137814089e-06
1.229999999999999982e+00,1.431561413298731242e-06
1.239999999999999991e+00,1.448603570785027827e-06
1.250000000000000000e+00,1.465570920716706515e-06
1.260000000000000009e+00,1.482458829729414417e-06
1.270000000000000018e+00,1.499262748586994847e-06
1.280000000000000249e+00,1.515978128115286728e-06
1.290000000000000036e+00,1.532600519005235328e-06
1.300000000000000044e+00,1.549125478627586202e-06
1.310000000000000053e+00,1.565548683976933258e-06
1.320000000000000062e+00,1.581865808940052732e-06
1.330000000000000071e+00,1.598072697880965675e-06
1.340000000000000302e+00,1.614165142677576715e-06
1.350000000000000089e+00,1.630139194999012415e-06
1.360000000000000098e+00,1.645990797017901581e-06
1.370000000000000107e+00,1.661716174769195408e-06
1.380000000000000115e+00,1.677311574234428089e-06
1.390000000000000124e+00,1.692773246248719637e-06
1.400000000000000355e+00,1.708097886225946631e-06
1.410000000000000142e+00,1.723281918638001024e-06
1.419999999999999929e+00,1.738322047616410842e-06
1.429999999999999938e+00,1.753215472618012614e-06
1.439999999999999947e+00,1.767958928485620015e-06
1.449999999999999956e+00,1.782549424922918429e-06
1.459999999999999964e+00,1.796984857389077521e-06
1.469999999999999751e+00,1.811262730434403849e-06
1.479999999999999982e+00,1.825380026829256154e-06
1.489999999999999991e+00,1.839334664711701088e-06
1.500000000000000000e+00,1.853125666181754450e-06
1.510000000000000009e+00,1.866751651415975462e-06
1.520000000000000018e+00,1.880210359533832779e-06
1.530000000000000249e+00,1.893499624976556640e-06
1.540000000000000036e+00,1.906618427080972029e-06
1.550000000000000044e+00,1.919566761756353232e-06
1.560000000000000053e+00,1.932344761497143717e-06
1.570000000000000062e+00,1.944952272009643568e-06
1.580000000000000071e+00,1.957388975998424437e-06
1.590000000000000302e+00,1.969654730094219145e-06
1.600000000000000089e+00,1.981749864358108223e-06
1.610000000000000098e+00,1.993675264163382195e-06
1.620000000000000107e+00,2.005432271997312009e-06
1.630000000000000115e+00,2.017022573723524487e-06
1.640000000000000124e+00,2.028448149045854967e-06
1.650000000000000355e+00,2.039711275074776133e-06
1.660000000000000142e+00,2.050814553769179691e-06
1.670000000000000151e+00,2.061760944237663142e-06
1.679999999999999938e+00,2.072553791207631969e-06
1.689999999999999947e+00,2.083196847146330782e-06
1.699999999999999956e+00,2.093694288985942532e-06
1.709999999999999964e+00,2.104050731756237794e-06
1.719999999999999751e+00,2.114271241299007707e-06
1.729999999999999982e+00,2.124361347418842984e-06
1.739999999999999991e+00,2.134327058072194891e-06
1.750000000000000000e+00,2.144174874680607345e-06
1.760000000000000009e+00,2.153911808351291975e-06
1.770000000000000018e+00,2.163545396522828171e-06
1.780000000000000249e+00,2.173083719183917870e-06
1.790000000000000036e+00,2.182535413678574073e-06
1.800000000000000044e+00,2.191909687383233937e-06
1.810000000000000053e+00,2.201216329006533203e-06
1.820000000000000062e+00,2.210465721526344906e-06
1.830000000000000071e+00,2.219668861765916116e-06
1.840000000000000302e+00,2.228837391600993968e-06
1.850000000000000089e+00,2.237983643361111811e-06
1.860000000000000098e+00,2.247120695574764213e-06
1.870000000000000107e+00,2.256262418777652206e-06
1.880000000000000115e+00,2.265423465690717929e-06
1.890000000000000124e+00,2.274619180341659963e-06
1.900000000000000355e+00,2.283865524035911383e-06
1.910000000000000142e+00,2.293179161530359964e-06
1.920000000000000151e+00,2.302577686877219441e-06
1.929999999999999938e+00,2.312079854018477006e-06
1.939999999999999947e+00,2.321705593821588505e-06
1.949999999999999956e+00,2.331475616069835003e-06
1.959999999999999964e+00,2.341411186400204712e-06
1.969999999999999751e+00,2.351534730998022334e-06
1.979999999999999982e+00,2.361870662145204613e-06
1.989999999999999991e+00,2.372445496556157822e-06
2.000000000000000000e+00,2.383286768855094137e-06
2.009999999999999787e+00,2.394422556082779660e-06
2.020000000000000018e+00,2.405882733645683536e-06
2.029999999999999805e+00,2.417699766964586246e-06
2.040000000000000036e+00,2.429906800250977468e-06
2.049999999999999822e+00,2.442537663321417927e-06
2.059999999999999609e+00,2.455629241699073152e-06
2.069999999999999840e+00,2.469219678432072381e-06
2.079999999999999627e+00,2.483341750348346161e-06
2.089999999999999858e+00,2.498010817637088855e-06
2.099999999999999645e+00,2.513064798829261051e-06
2.109999999999999876e+00,2.528976827859345586e-06
2.119999999999999662e+00,2.546625130031775802e-06
2.129999999999999893e+00,2.565780053600208841e-06
2.139999999999999680e+00,2.586489167651853598e-06
2.149999999999999911e+00,2.608964167779406748e-06
2.159999999999999698e+00,2.633792598870495471e-06
2.169999999999999929e+00,2.661831526808750324e-06
2.179999999999999716e+00,2.691025885957452935e-06
2.189999999999999947e+00,2.721771772831466197e-06
2.199999999999999734e+00,2.754168405041362613e-06
2.209999999999999964e+00,2.788243343177117172e-06
2.219999999999999751e+00,2.823999726910113232e-06
2.229999999999999982e+00,2.861435610885307443e-06
2.239999999999999769e+00,2.900546809699956563e-06
2.250000000000000444e+00,2.941322792816848286e-06
2.259999999999999787e+00,2.983759000392770505e-06
2.270000000000000018e+00,3.027842266651571890e-06
2.279999999999999805e+00,3.073567580403803286e-06
2.290000000000000036e+00,3.120922271564232419e-06
2.299999999999999822e+00,3.169900521987338039e-06
2.310000000000000053e+00,3.220491298203702005e-06
2.319999999999999396e+00,3.272688339312791660e-06
2.329999999999999627e+00,3.326482163495225043e-06
2.339999999999999858e+00,3.381866885213208162e-06
2.349999999999999645e+00,3.438833904404038279e-06
2.359999999999999876e+00,3.497378699730282677e-06
2.369999999999999662e+00,3.557492642394029162e-06
2.379999999999999893e+00,3.619173538350550883e-06
2.389999999999999236e+00,3.682411923349675362e-06
2.399999999999999911e+00,3.747208410500472492e-06
2.409999999999999698e+00,3.813552756047915745e-06
2.419999999999999929e+00,3.881447380633437645e-06
2.429999999999999716e+00,3.950883285247511475e-06
2.439999999999999503e+00,4.021861415642368493e-06
2.449999999999999734e+00,4.094377929425884789e-06
2.459999999999999964e+00,4.168428566040503683e-06
2.469999999999999751e+00,4.244016587528836202e-06
2.479999999999999982e+00,4.321133887474766004e-06
2.489999999999999769e+00,4.399784954700739398e-06
2.500000000000000000e+00,4.479966774625238486e-06
2.509999999999999343e+00,4.561676204470994744e-06
2.520000000000000018e+00,4.644919304233569257e-06
2.529999999999999805e+00,4.729690009608881457e-06
2.540000000000000036e+00,4.815990356795148250e-06
2.549999999999999822e+00,4.903825064327784631e-06
2.560000000000000497e+00,4.993188390183676053e-06
2.569999999999999840e+00,5.084084690064141041e-06
2.579999999999999183e+00,5.176518536406092811e-06
2.589999999999999858e+00,5.270485089970447547e-06
2.599999999999999645e+00,5.365988610584765219e-06
2.609999999999999876e+00,5.463035499848474768e-06
2.619999999999999662e+00,5.561622112006849101e-06
2.629999999999999449e+00,5.661750452118488888e-06
2.639999999999999680e+00,5.763428918679949589e-06
2.649999999999999911e+00,5.866657651678618968e-06
2.659999999999999698e+00,5.971435325041778460e-06
2.669999999999999929e+00,6.077768372399307112e-06
2.679999999999999716e+00,6.185663838131819742e-06
2.689999999999999947e+00,6.295120729319265567e-06
2.699999999999999289e+00,6.406140040634220937e-06
2.709999999999999964e+00,6.518728735207357580e-06
2.719999999999999751e+00,6.632894115304014937e-06
2.729999999999999982e+00,6.748636860419967773e-06
2.739999999999999769e+00,6.865957979049779412e-06
2.749999999999999556e+00,6.984862845343939034e-06
2.759999999999999787e+00,7.105359546515039423e-06
2.770000000000000018e+00,7.227453234242480355e-06
2.779999999999999805e+00,7.351145175322613554e-06
2.790000000000000036e+00,7.476438212582099911e-06
2.799999999999999822e+00,7.603337908858796101e-06
2.810000000000000053e+00,7.731851690495624728e-06
2.819999999999999396e+00,7.861986408340252393e-06
2.829999999999999627e+00,7.993745870454313707e-06
2.839999999999999858e+00,8.127133148493255284e-06
2.849999999999999645e+00,8.262152658327671589e-06
2.859999999999999876e+00,8.398810123600915177e-06
2.869999999999999662e+00,8.537112188228726558e-06
2.879999999999999893e+00,8.677065900773282502e-06
2.889999999999999236e+00,8.818677750290023997e-06
2.899999999999999911e+00,8.961953043895298516e-06
2.909999999999999698e+00,9.106896646173656058e-06
2.919999999999999929e+00,9.253513823551187486e-06
2.929999999999999716e+00,9.401810386964663493e-06
2.939999999999999503e+00,9.551792549854065589e-06
2.949999999999999734e+00,9.703466787655525832e-06
2.959999999999999964e+00,9.856839741587406620e-06
2.969999999999999751e+00,1.001191815040447327e-05
2.979999999999999982e+00,1.016870879665904741e-05
2.989999999999999769e+00,1.032721846701888900e-05
3.000000000000000000e+00,1.048745393525235424e-05
3.009999999999999343e+00,1.064942197377627016e-05
3.020000000000000018e+00,1.081312938616887587e-05
3.029999999999999805e+00,1.097858304298746456e-05
3.040000000000000036e+00,1.114578990697038857e-05
3.049999999999999822e+00,1.131475704470177368e-05
3.060000000000000497e+00,1.148549162897252013e-05
3.069999999999999840e+00,1.165800093700783710e-05
3.080000000000000071e+00,1.183229234827863993e-05
3.089999999999999858e+00,1.200837334549187400e-05
3.099999999999999645e+00,1.218625152325890930e-05
3.109999999999999876e+00,1.236593460427940589e-05
3.119999999999999662e+00,1.254743044753001175e-05
3.129999999999999449e+00,1.273074702342920085e-05
3.139999999999999680e+00,1.291589236249379512e-05
3.149999999999999911e+00,1.310287451865356940e-05
3.159999999999999698e+00,1.329170152784195019e-05
3.169999999999999929e+00,1.348238130877919941e-05
3.179999999999999716e+00,1.367492164330991155e-05
3.189999999999999947e+00,1.386933032702967827e-05
3.199999999999999289e+00,1.406561518290069065e-05
3.209999999999999964e+00,1.426378408619140975e-05
3.219999999999999751e+00,1.446384534563997656e-05
3.229999999999999982e+00,1.466580788229332820e-05
3.239999999999999769e+00,1.486968176533950683e-05
3.250000000000000444e+00,1.507547855811576342e-05
3.259999999999999787e+00,1.528320896625543144e-05
3.270000000000000018e+00,1.549288045395308535e-05
3.279999999999999805e+00,1.570449832331721564e-05
3.290000000000000036e+00,1.591806864136611916e-05
3.299999999999999822e+00,1.613359907331145859e-05
3.310000000000000053e+00,1.635110034285040901e-05
3.319999999999999396e+00,1.657058806271598372e-05
3.330000000000000071e+00,1.679207862337591807e-05
3.339999999999999858e+00,1.701557658889596474e-05
3.349999999999999645e+00,1.724108235558964635e-05
3.359999999999999876e+00,1.746860092412015955e-05
3.369999999999999662e+00,1.769814549763710704e-05
3.379999999999999893e+00,1.792974024296223760e-05
3.389999999999999236e+00,1.816339982388171759e-05
3.399999999999999911e+00,1.839911748671710641e-05
3.409999999999999698e+00,1.863689303066216774e-05
3.419999999999999929e+00,1.887674282802979689e-05
3.429999999999999716e+00,1.911870127925807537e-05
3.439999999999999503e+00,1.936277312322387287e-05
3.449999999999999734e+00,1.960894337464768924e-05
3.459999999999999964e+00,1.985722053905132880e-05
3.469999999999999751e+00,2.010764568687662521e-05
3.479999999999999982e+00,2.036023390671900420e-05
3.489999999999999769e+00,2.061495925316584173e-05
3.500000000000000000e+00,2.087183143240914433e-05
3.509999999999999343e+00,2.113090546711577164e-05
3.520000000000000018e+00,2.139217770811473480e-05
3.529999999999999805e+00,2.165561923755695469e-05
3.540000000000000036e+00,2.192126804943800848e-05
3.549999999999999822e+00,2.218917438001350839e-05
3.560000000000000497e+00,2.245928960734973519e-05
3.569999999999999840e+00,2.273162454451925688e-05
3.580000000000000071e+00,2.300625791789309035e-05
3.589999999999999858e+00,2.328314415869260634e-05
3.599999999999999645e+00,2.356227385222661364e-05
3.609999999999999876e+00,2.384374020318778077e-05
3.619999999999999662e+00,2.412749409178959530e-05
3.629999999999999449e+00,2.441352439372516099e-05
3.639999999999999680e+00,2.470193542720427264e-05
3.649999999999999911e+00,2.499265285590368695e-05
3.659999999999999698e+00,2.528569783287472306e-05
3.669999999999999929e+00,2.558116027075709589e-05
3.679999999999999716e+00,2.587893813270537806e-05
3.689999999999999947e+00,2.617912781634280090e-05
3.699999999999999289e+00,2.648173003595178114e-05
3.709999999999999964e+00,2.678668578521691085e-05
3.719999999999999751e+00,2.709413762487199376e-05
3.729999999999999982e+00,2.740396230174992406e-05
3.739999999999999769e+00,2.771626394831775187e-05
3.749999999999999556e+00,2.803103157069755002e-05
3.759999999999999787e+00,2.834822617631405355e-05
3.770000000000000018e+00,2.866797804814740300e-05
3.779999999999999805e+00,2.899014214222127067e-05
3.790000000000000036e+00,2.931490471807172746e-05
3.799999999999999822e+00,2.964211334205605562e-05
3.810000000000000053e+00,2.997192000500231384e-05
3.819999999999999396e+00,3.030423302140653572e-05
3.830000000000000071e+00,3.063913301467616012e-05
3.839999999999999858e+00,3.097660096829452027e-05
3.849999999999999645e+00,3.131665210362313752e-05
3.859999999999999876e+00,3.165932227384341110e-05
3.869999999999999662e+00,3.200458534430663561e-05
3.879999999999999893e+00,3.235250450953364176e-05
3.889999999999999236e+00,3.270304153194168560e-05
3.899999999999999911e+00,3.305625573223676828e-05
3.909999999999999698e+00,3.341212935071474142e-05
3.919999999999999929e+00,3.377068313714586776e-05
3.929999999999999716e+00,3.413195725575287758e-05
3.939999999999999503e+00,3.449589662026800245e-05
3.949999999999999734e+00,3.486263436988925945e-05
3.959999999999999964e+00,3.523201242489725621e-05
3.969999999999999751e+00,3.560426506289598243e-05
3.979999999999999982e+00,3.597915700458261603e-05
3.989999999999999769e+00,3.635695278277523189e-05
